[Measurement conditions]
Sample identification,
Comment - 1,"Configuration=Flat Sample Stage, Owner=User-1, Creation date=3/25/2015 2:10:01 PM"
Comment - 2,"Goniometer=PW3050/60 (Theta/Theta); Minimum step size 2Theta:0.001; Minimum step size Omega:0.001"
Comment - 3,"Sample stage=PW3071/xx Bracket"
Comment - 4,"Diffractometer system=XPERT-PRO"
Comment - 5,"Measurement program=C:\PANalytical\Data Collector\Programs\Flat sample Scan.xrdmp, Identifier={A9F6D0C0-202E-4C59-A4F1-A5BA86123012}"
Comment - 6,""
Anode material,Cu
K-Alpha1 wavelength,1.5405980
K-Alpha2 wavelength,1.5444260
Ratio K-Alpha2/K-Alpha1,0.000
Divergence slit,Fixed,0.500
Receiving slit,0.10
Monochromator used,NO
Generator voltage, 40
Tube current, 30
File date and time,27/Feb/2020 18:09
Unit cell,
h k l, 0 0 0
Temperature [K],298
Scan axis,Gonio
Scan range,19.9995,79.9925
Scan step size,0.0170000
No. of points, 3529
Scan type,CONTINUOUS
Time per step,34.925
[Scan points]
Angle,Intensity
20.0090,989.1
20.0260,1005.9
20.0430,1005.1
20.0600,1007.5
20.0770,1018.1
20.0940,1065.0
20.1110,1030.5
20.1280,990.2
20.1450,980.9
20.1620,1025.9
20.1790,994.8
20.1960,1022.9
20.2130,1022.0
20.2300,1020.0
20.2470,991.9
20.2640,1053.6
20.2810,1028.6
20.2980,991.9
20.3150,1023.2
20.3320,1027.0
20.3490,1028.5
20.3660,1051.9
20.3830,1031.9
20.4000,999.8
20.4170,1013.5
20.4340,1039.0
20.4510,1054.8
20.4680,1051.5
20.4850,1042.1
20.5020,1025.2
20.5190,998.6
20.5360,1039.5
20.5530,1030.3
20.5700,1005.2
20.5870,1040.2
20.6040,1029.4
20.6210,1052.6
20.6380,1059.2
20.6550,1015.3
20.6720,1021.3
20.6890,1044.1
20.7060,1077.5
20.7230,1067.5
20.7400,1028.1
20.7570,1044.6
20.7740,1038.0
20.7910,1023.4
20.8080,1044.9
20.8250,1028.9
20.8420,1045.1
20.8590,1060.6
20.8760,1039.4
20.8930,1061.2
20.9100,1046.9
20.9270,1032.1
20.9440,1063.6
20.9610,1039.6
20.9780,1019.4
20.9950,1055.2
21.0120,1028.8
21.0290,1054.6
21.0460,1005.1
21.0630,1085.2
21.0800,1069.1
21.0970,1022.3
21.1140,1026.1
21.1310,1014.6
21.1480,1056.1
21.1650,1055.4
21.1820,1029.6
21.1990,1038.2
21.2160,1026.2
21.2330,1046.8
21.2500,1060.1
21.2670,1060.9
21.2840,1057.6
21.3010,1035.3
21.3180,1039.9
21.3350,1039.6
21.3520,1050.0
21.3690,1049.2
21.3860,1037.2
21.4030,1039.9
21.4200,1040.5
21.4370,1063.2
21.4540,1049.1
21.4710,1019.8
21.4880,1048.1
21.5050,1049.1
21.5220,1036.6
21.5390,1062.1
21.5560,1064.2
21.5730,1067.4
21.5900,1057.2
21.6070,1062.2
21.6240,1081.5
21.6410,1086.2
21.6580,1040.4
21.6750,1030.2
21.6920,1034.8
21.7090,1048.9
21.7260,1061.2
21.7430,1033.1
21.7600,1048.8
21.7770,1032.2
21.7940,1066.9
21.8110,1048.5
21.8280,1025.6
21.8450,1053.6
21.8620,1093.5
21.8790,1055.4
21.8960,1077.6
21.9130,1072.0
21.9300,1085.9
21.9470,1053.1
21.9640,1071.4
21.9810,1077.3
21.9980,1083.2
22.0150,1099.8
22.0320,1063.6
22.0490,1044.4
22.0660,1083.7
22.0830,1093.6
22.1000,1070.4
22.1170,1047.1
22.1340,1093.7
22.1510,1043.9
22.1680,1090.6
22.1850,1101.1
22.2020,1116.2
22.2190,1071.9
22.2360,1086.9
22.2530,1083.3
22.2700,1056.2
22.2870,1063.3
22.3040,1131.7
22.3210,1124.1
22.3380,1077.4
22.3550,1067.9
22.3720,1067.8
22.3890,1082.1
22.4060,1100.4
22.4230,1106.2
22.4400,1092.2
22.4570,1080.1
22.4740,1082.1
22.4910,1083.6
22.5080,1079.4
22.5250,1101.5
22.5420,1107.5
22.5590,1082.8
22.5760,1064.2
22.5930,1084.3
22.6100,1103.7
22.6270,1083.8
22.6440,1094.6
22.6610,1072.7
22.6780,1068.6
22.6950,1078.6
22.7120,1090.1
22.7290,1106.0
22.7460,1091.1
22.7630,1109.6
22.7800,1117.3
22.7970,1089.4
22.8140,1080.1
22.8310,1098.9
22.8480,1113.4
22.8650,1101.1
22.8820,1071.8
22.8990,1085.1
22.9160,1102.4
22.9330,1091.8
22.9500,1089.1
22.9670,1091.1
22.9840,1107.4
23.0010,1099.3
23.0180,1115.1
23.0350,1039.5
23.0520,1081.4
23.0690,1121.1
23.0860,1150.7
23.1030,1095.7
23.1200,1060.5
23.1370,1084.6
23.1540,1094.2
23.1710,1082.8
23.1880,1112.8
23.2050,1122.9
23.2220,1077.6
23.2390,1136.2
23.2560,1153.5
23.2730,1112.4
23.2900,1102.8
23.3070,1097.0
23.3240,1064.5
23.3410,1056.1
23.3580,1059.5
23.3750,1084.6
23.3920,1110.8
23.4090,1105.5
23.4260,1066.9
23.4430,1099.6
23.4600,1124.5
23.4770,1115.8
23.4940,1098.1
23.5110,1115.6
23.5280,1108.5
23.5450,1083.9
23.5620,1082.7
23.5790,1078.7
23.5960,1089.8
23.6130,1085.6
23.6300,1080.6
23.6470,1089.4
23.6640,1082.9
23.6810,1128.9
23.6980,1111.6
23.7150,1107.8
23.7320,1136.5
23.7490,1145.2
23.7660,1162.8
23.7830,1128.1
23.8000,1131.8
23.8170,1160.3
23.8340,1147.0
23.8510,1117.1
23.8680,1148.9
23.8850,1114.4
23.9020,1108.2
23.9190,1159.4
23.9360,1162.7
23.9530,1111.4
23.9700,1133.1
23.9870,1116.2
24.0040,1093.1
24.0210,1171.9
24.0380,1120.2
24.0550,1080.2
24.0720,1145.2
24.0890,1116.1
24.1060,1100.9
24.1230,1101.1
24.1400,1118.5
24.1570,1112.2
24.1740,1133.4
24.1910,1154.3
24.2080,1125.9
24.2250,1108.8
24.2420,1123.4
24.2590,1142.5
24.2760,1105.7
24.2930,1148.7
24.3100,1143.6
24.3270,1140.1
24.3440,1174.4
24.3610,1178.2
24.3780,1149.7
24.3950,1144.1
24.4120,1130.6
24.4290,1139.8
24.4460,1137.5
24.4630,1146.0
24.4800,1160.7
24.4970,1138.4
24.5140,1114.6
24.5310,1139.5
24.5480,1128.4
24.5650,1088.4
24.5820,1111.3
24.5990,1130.9
24.6160,1113.9
24.6330,1114.5
24.6500,1137.6
24.6670,1130.4
24.6840,1106.2
24.7010,1125.8
24.7180,1137.6
24.7350,1114.9
24.7520,1100.9
24.7690,1147.1
24.7860,1146.6
24.8030,1107.9
24.8200,1108.4
24.8370,1146.0
24.8540,1130.4
24.8710,1133.9
24.8880,1104.9
24.9050,1168.6
24.9220,1175.4
24.9390,1134.7
24.9560,1145.6
24.9730,1137.4
24.9900,1112.8
25.0070,1125.6
25.0240,1121.8
25.0410,1166.0
25.0580,1150.6
25.0750,1158.3
25.0920,1116.8
25.1090,1147.2
25.1260,1167.7
25.1430,1177.4
25.1600,1150.0
25.1770,1135.9
25.1940,1165.7
25.2110,1160.5
25.2280,1150.6
25.2450,1129.8
25.2620,1158.4
25.2790,1165.9
25.2960,1180.2
25.3130,1181.6
25.3300,1157.2
25.3470,1112.8
25.3640,1112.8
25.3810,1158.1
25.3980,1174.8
25.4150,1156.6
25.4320,1167.9
25.4490,1198.5
25.4660,1187.9
25.4830,1154.4
25.5000,1161.6
25.5170,1173.5
25.5340,1197.5
25.5510,1203.2
25.5680,1174.4
25.5850,1164.9
25.6020,1162.9
25.6190,1162.0
25.6360,1162.8
25.6530,1174.3
25.6700,1162.6
25.6870,1156.3
25.7040,1146.8
25.7210,1173.5
25.7380,1150.1
25.7550,1169.9
25.7720,1213.4
25.7890,1156.4
25.8060,1161.6
25.8230,1141.0
25.8400,1172.8
25.8570,1172.3
25.8740,1220.8
25.8910,1155.2
25.9080,1190.1
25.9250,1173.3
25.9420,1147.2
25.9590,1168.9
25.9760,1199.3
25.9930,1185.6
26.0100,1148.2
26.0270,1153.1
26.0440,1172.9
26.0610,1201.4
26.0780,1177.6
26.0950,1203.4
26.1120,1208.5
26.1290,1183.4
26.1460,1157.2
26.1630,1160.4
26.1800,1167.5
26.1970,1193.6
26.2140,1230.8
26.2310,1164.2
26.2480,1167.4
26.2650,1172.7
26.2820,1168.4
26.2990,1176.3
26.3160,1197.6
26.3330,1205.4
26.3500,1165.9
26.3670,1196.6
26.3840,1189.4
26.4010,1181.2
26.4180,1199.6
26.4350,1193.3
26.4520,1197.4
26.4690,1187.2
26.4860,1174.1
26.5030,1175.2
26.5200,1161.7
26.5370,1157.0
26.5540,1158.9
26.5710,1189.9
26.5880,1186.8
26.6050,1169.9
26.6220,1200.2
26.6390,1188.4
26.6560,1194.0
26.6730,1177.6
26.6900,1174.8
26.7070,1219.0
26.7240,1202.8
26.7410,1199.7
26.7580,1208.6
26.7750,1169.2
26.7920,1142.6
26.8090,1169.3
26.8260,1187.1
26.8430,1146.6
26.8600,1234.5
26.8770,1209.8
26.8940,1191.6
26.9110,1201.8
26.9280,1200.4
26.9450,1222.0
26.9620,1221.5
26.9790,1214.9
26.9960,1227.4
27.0130,1201.1
27.0300,1202.8
27.0470,1201.4
27.0640,1220.2
27.0810,1179.2
27.0980,1244.4
27.1150,1219.9
27.1320,1230.4
27.1490,1175.4
27.1660,1214.8
27.1830,1227.4
27.2000,1215.5
27.2170,1192.9
27.2340,1205.5
27.2510,1180.6
27.2680,1161.5
27.2850,1203.1
27.3020,1220.1
27.3190,1205.0
27.3360,1187.8
27.3530,1167.6
27.3700,1165.0
27.3870,1229.5
27.4040,1236.6
27.4210,1215.4
27.4380,1220.4
27.4550,1195.5
27.4720,1203.1
27.4890,1203.7
27.5060,1199.3
27.5230,1204.2
27.5400,1208.8
27.5570,1241.1
27.5740,1301.5
27.5910,1227.5
27.6080,1204.2
27.6250,1222.8
27.6420,1200.3
27.6590,1160.8
27.6760,1219.9
27.6930,1203.8
27.7100,1215.8
27.7270,1196.6
27.7440,1204.6
27.7610,1166.9
27.7780,1187.4
27.7950,1269.4
27.8120,1208.8
27.8290,1175.3
27.8460,1196.6
27.8630,1206.5
27.8800,1201.5
27.8970,1240.6
27.9140,1217.9
27.9310,1196.6
27.9480,1142.6
27.9650,1153.9
27.9820,1185.1
27.9990,1202.5
28.0160,1208.8
28.0330,1191.5
28.0500,1213.1
28.0670,1183.7
28.0840,1210.4
28.1010,1201.9
28.1180,1218.3
28.1350,1237.4
28.1520,1211.3
28.1690,1200.9
28.1860,1214.7
28.2030,1211.1
28.2200,1228.9
28.2370,1227.5
28.2540,1217.1
28.2710,1188.4
28.2880,1210.2
28.3050,1214.9
28.3220,1228.9
28.3390,1226.2
28.3560,1212.7
28.3730,1194.0
28.3900,1226.6
28.4070,1236.2
28.4240,1223.3
28.4410,1227.5
28.4580,1221.7
28.4750,1264.9
28.4920,1260.4
28.5090,1220.3
28.5260,1241.7
28.5430,1252.8
28.5600,1249.4
28.5770,1252.6
28.5940,1215.6
28.6110,1241.1
28.6280,1242.6
28.6450,1251.9
28.6620,1249.8
28.6790,1229.9
28.6960,1230.8
28.7130,1270.6
28.7300,1202.3
28.7470,1222.6
28.7640,1220.5
28.7810,1273.3
28.7980,1229.8
28.8150,1228.7
28.8320,1269.7
28.8490,1234.1
28.8660,1249.2
28.8830,1222.6
28.9000,1262.4
28.9170,1233.8
28.9340,1201.8
28.9510,1262.0
28.9680,1263.4
28.9850,1283.3
29.0020,1238.8
29.0190,1223.8
29.0360,1281.1
29.0530,1234.8
29.0700,1235.1
29.0870,1285.6
29.1040,1306.4
29.1210,1233.3
29.1380,1237.5
29.1550,1232.2
29.1720,1267.3
29.1890,1253.2
29.2060,1207.4
29.2230,1198.3
29.2400,1220.6
29.2570,1247.9
29.2740,1263.3
29.2910,1266.2
29.3080,1236.9
29.3250,1235.8
29.3420,1231.8
29.3590,1228.2
29.3760,1232.5
29.3930,1242.9
29.4100,1273.8
29.4270,1268.1
29.4440,1237.8
29.4610,1252.8
29.4780,1295.8
29.4950,1276.6
29.5120,1270.8
29.5290,1267.0
29.5460,1251.9
29.5630,1267.4
29.5800,1287.8
29.5970,1269.7
29.6140,1277.9
29.6310,1226.6
29.6480,1208.8
29.6650,1285.1
29.6820,1285.5
29.6990,1272.3
29.7160,1426.4
29.7330,1255.0
29.7500,1239.0
29.7670,1241.5
29.7840,1281.9
29.8010,1281.5
29.8180,1287.6
29.8350,1250.1
29.8520,1266.3
29.8690,1255.1
29.8860,1256.6
29.9030,1264.0
29.9200,1235.1
29.9370,1283.4
29.9540,1258.6
29.9710,1270.2
29.9880,1302.1
30.0050,1257.2
30.0220,1292.1
30.0390,1292.2
30.0560,1277.1
30.0730,1248.1
30.0900,1266.6
30.1070,1291.6
30.1240,1283.4
30.1410,1257.2
30.1580,1243.9
30.1750,1242.9
30.1920,1258.4
30.2090,1279.1
30.2260,1263.5
30.2430,1240.8
30.2600,1272.1
30.2770,1305.3
30.2940,1293.3
30.3110,1281.8
30.3280,1278.7
30.3450,1274.1
30.3620,1273.6
30.3790,1251.9
30.3960,1267.5
30.4130,1292.4
30.4300,1298.3
30.4470,1286.2
30.4640,1272.9
30.4810,1254.0
30.4980,1238.5
30.5150,1245.8
30.5320,1244.4
30.5490,1265.2
30.5660,1250.1
30.5830,1222.4
30.6000,1259.7
30.6170,1239.6
30.6340,1250.6
30.6510,1275.9
30.6680,1258.6
30.6850,1266.8
30.7020,1236.2
30.7190,1299.0
30.7360,1237.1
30.7530,1268.5
30.7700,1247.5
30.7870,1302.7
30.8040,1283.0
30.8210,1293.6
30.8380,1210.9
30.8550,1258.5
30.8720,1279.9
30.8890,1249.2
30.9060,1283.2
30.9230,1271.8
30.9400,1299.5
30.9570,1275.6
30.9740,1286.2
30.9910,1305.9
31.0080,1301.1
31.0250,1256.9
31.0420,1286.4
31.0590,1276.9
31.0760,1274.8
31.0930,1270.8
31.1100,1253.3
31.1270,1271.8
31.1440,1238.8
31.1610,1285.8
31.1780,1327.2
31.1950,1283.1
31.2120,1285.2
31.2290,1289.7
31.2460,1299.8
31.2630,1279.3
31.2800,1270.2
31.2970,1306.2
31.3140,1308.9
31.3310,1307.2
31.3480,1312.1
31.3650,1343.4
31.3820,1299.1
31.3990,1268.8
31.4160,1280.8
31.4330,1277.8
31.4500,1292.4
31.4670,1329.9
31.4840,1329.5
31.5010,1336.2
31.5180,1319.9
31.5350,1271.1
31.5520,1276.6
31.5690,1332.8
31.5860,1313.4
31.6030,1317.0
31.6200,1284.3
31.6370,1272.5
31.6540,1264.6
31.6710,1275.6
31.6880,1301.5
31.7050,1308.2
31.7220,1296.5
31.7390,1304.4
31.7560,1309.1
31.7730,1295.8
31.7900,1321.4
31.8070,1279.2
31.8240,1268.5
31.8410,1305.9
31.8580,1259.5
31.8750,1311.2
31.8920,1239.2
31.9090,1304.6
31.9260,1281.3
31.9430,1273.8
31.9600,1333.8
31.9770,1311.5
31.9940,1257.1
32.0110,1277.5
32.0280,1315.4
32.0450,1271.1
32.0620,1241.2
32.0790,1264.1
32.0960,1312.9
32.1130,1309.7
32.1300,1275.6
32.1470,1317.2
32.1640,1317.9
32.1810,1284.8
32.1980,1300.3
32.2150,1334.9
32.2320,1299.4
32.2490,1275.7
32.2660,1304.7
32.2830,1331.7
32.3000,1324.6
32.3170,1286.5
32.3340,1279.8
32.3510,1309.8
32.3680,1322.5
32.3850,1328.8
32.4020,1307.6
32.4190,1285.6
32.4360,1297.5
32.4530,1322.1
32.4700,1323.8
32.4870,1320.3
32.5040,1310.2
32.5210,1328.2
32.5380,1318.0
32.5550,1348.7
32.5720,1324.1
32.5890,1262.3
32.6060,1283.8
32.6230,1301.1
32.6400,1363.6
32.6570,1309.5
32.6740,1304.4
32.6910,1341.9
32.7080,1323.4
32.7250,1314.8
32.7420,1343.1
32.7590,1328.6
32.7760,1321.1
32.7930,1307.5
32.8100,1332.9
32.8270,1345.6
32.8440,1307.5
32.8610,1314.2
32.8780,1303.8
32.8950,1333.4
32.9120,1356.2
32.9290,1355.1
32.9460,1294.9
32.9630,1340.4
32.9800,1327.8
32.9970,1292.8
33.0140,1305.2
33.0310,1307.9
33.0480,1308.9
33.0650,1336.1
33.0820,1290.1
33.0990,1291.5
33.1160,1300.5
33.1330,1323.4
33.1500,1312.6
33.1670,1289.9
33.1840,1289.9
33.2010,1321.9
33.2180,1333.6
33.2350,1279.5
33.2520,1272.8
33.2690,1302.6
33.2860,1314.6
33.3030,1340.8
33.3200,1352.3
33.3370,1326.0
33.3540,1339.7
33.3710,1302.5
33.3880,1295.1
33.4050,1297.5
33.4220,1308.4
33.4390,1346.1
33.4560,1345.8
33.4730,1327.5
33.4900,1334.6
33.5070,1311.1
33.5240,1298.3
33.5410,1320.4
33.5580,1341.6
33.5750,1336.2
33.5920,1341.8
33.6090,1367.5
33.6260,1326.5
33.6430,1318.1
33.6600,1318.7
33.6770,1299.2
33.6940,1319.8
33.7110,1332.6
33.7280,1340.3
33.7450,1299.2
33.7620,1336.8
33.7790,1380.2
33.7960,1349.8
33.8130,1328.8
33.8300,1313.4
33.8470,1366.8
33.8640,1363.8
33.8810,1358.5
33.8980,1333.2
33.9150,1305.8
33.9320,1321.5
33.9490,1362.6
33.9660,1365.8
33.9830,1269.7
34.0000,1329.5
34.0170,1338.7
34.0340,1364.5
34.0510,1339.0
34.0680,1307.5
34.0850,1317.7
34.1020,1343.2
34.1190,1315.5
34.1360,1340.4
34.1530,1346.4
34.1700,1334.7
34.1870,1315.9
34.2040,1345.5
34.2210,1337.4
34.2380,1325.8
34.2550,1307.9
34.2720,1321.8
34.2890,1319.3
34.3060,1324.5
34.3230,1333.5
34.3400,1341.8
34.3570,1337.8
34.3740,1320.4
34.3910,1340.9
34.4080,1322.9
34.4250,1322.1
34.4420,1322.1
34.4590,1309.1
34.4760,1326.9
34.4930,1328.4
34.5100,1363.2
34.5270,1319.7
34.5440,1349.4
34.5610,1386.7
34.5780,1361.8
34.5950,1294.1
34.6120,1297.5
34.6290,1321.4
34.6460,1312.5
34.6630,1321.6
34.6800,1333.9
34.6970,1361.4
34.7140,1303.9
34.7310,1321.1
34.7480,1369.7
34.7650,1364.6
34.7820,1354.6
34.7990,1288.4
34.8160,1358.0
34.8330,1343.9
34.8500,1373.5
34.8670,1347.2
34.8840,1316.6
34.9010,1297.6
34.9180,1338.5
34.9350,1332.6
34.9520,1358.9
34.9690,1357.8
34.9860,1356.8
35.0030,1385.3
35.0200,1374.0
35.0370,1371.0
35.0540,1324.5
35.0710,1351.4
35.0880,1402.7
35.1050,1364.8
35.1220,1347.4
35.1390,1369.5
35.1560,1376.6
35.1730,1368.4
35.1900,1328.2
35.2070,1347.8
35.2240,1344.3
35.2410,1350.1
35.2580,1366.5
35.2750,1344.4
35.2920,1366.3
35.3090,1370.5
35.3260,1360.9
35.3430,1343.9
35.3600,1360.7
35.3770,1401.8
35.3940,1365.1
35.4110,1351.8
35.4280,1366.2
35.4450,1381.2
35.4620,1320.7
35.4790,1333.1
35.4960,1352.1
35.5130,1370.2
35.5300,1371.3
35.5470,1330.6
35.5640,1372.5
35.5810,1380.2
35.5980,1363.4
35.6150,1291.5
35.6320,1334.0
35.6490,1368.4
35.6660,1404.8
35.6830,1370.0
35.7000,1368.1
35.7170,1337.4
35.7340,1346.6
35.7510,1386.3
35.7680,1344.5
35.7850,1364.6
35.8020,1314.9
35.8190,1381.4
35.8360,1446.8
35.8530,1363.9
35.8700,1361.6
35.8870,1342.4
35.9040,1382.5
35.9210,1402.9
35.9380,1354.1
35.9550,1374.3
35.9720,1408.4
35.9890,1363.8
36.0060,1329.2
36.0230,1349.8
36.0400,1378.5
36.0570,1387.8
36.0740,1414.2
36.0910,1384.9
36.1080,1380.9
36.1250,1346.5
36.1420,1324.1
36.1590,1357.2
36.1760,1359.2
36.1930,1346.6
36.2100,1357.9
36.2270,1388.0
36.2440,1386.8
36.2610,1367.0
36.2780,1367.0
36.2950,1367.5
36.3120,1374.2
36.3290,1363.1
36.3460,1395.2
36.3630,1378.8
36.3800,1329.3
36.3970,1368.8
36.4140,1411.6
36.4310,1372.8
36.4480,1353.8
36.4650,1365.4
36.4820,1356.1
36.4990,1374.7
36.5160,1401.2
36.5330,1390.1
36.5500,1406.2
36.5670,1378.5
36.5840,1401.1
36.6010,1386.0
36.6180,1383.5
36.6350,1344.2
36.6520,1352.2
36.6690,1416.4
36.6860,1374.4
36.7030,1365.9
36.7200,1394.2
36.7370,1351.8
36.7540,1377.4
36.7710,1322.1
36.7880,1357.2
36.8050,1391.8
36.8220,1389.6
36.8390,1397.4
36.8560,1370.6
36.8730,1364.4
36.8900,1357.0
36.9070,1404.6
36.9240,1396.2
36.9410,1366.4
36.9580,1358.1
36.9750,1374.8
36.9920,1370.1
37.0090,1354.6
37.0260,1349.1
37.0430,1351.9
37.0600,1370.1
37.0770,1419.4
37.0940,1407.6
37.1110,1385.6
37.1280,1395.8
37.1450,1392.8
37.1620,1389.6
37.1790,1396.6
37.1960,1357.2
37.2130,1345.9
37.2300,1376.9
37.2470,1376.8
37.2640,1390.9
37.2810,1402.9
37.2980,1369.6
37.3150,1379.1
37.3320,1379.7
37.3490,1378.2
37.3660,1430.1
37.3830,1428.4
37.4000,1386.6
37.4170,1396.7
37.4340,1391.4
37.4510,1380.4
37.4680,1371.5
37.4850,1395.4
37.5020,1401.2
37.5190,1386.7
37.5360,1366.2
37.5530,1371.9
37.5700,1401.9
37.5870,1400.2
37.6040,1399.6
37.6210,1347.0
37.6380,1366.1
37.6550,1415.5
37.6720,1424.4
37.6890,1423.8
37.7060,1330.9
37.7230,1439.0
37.7400,1389.4
37.7570,1366.8
37.7740,1425.6
37.7910,1388.9
37.8080,1418.2
37.8250,1388.1
37.8420,1376.5
37.8590,1415.0
37.8760,1382.2
37.8930,1371.4
37.9100,1393.8
37.9270,1392.1
37.9440,1406.4
37.9610,1364.9
37.9780,1362.3
37.9950,1338.9
38.0120,1401.2
38.0290,1404.2
38.0460,1407.0
38.0630,1389.9
38.0800,1376.1
38.0970,1425.9
38.1140,1424.1
38.1310,1409.5
38.1480,1416.9
38.1650,1398.6
38.1820,1377.9
38.1990,1393.4
38.2160,1400.1
38.2330,1402.8
38.2500,1413.2
38.2670,1369.6
38.2840,1381.5
38.3010,1403.6
38.3180,1385.1
38.3350,1433.2
38.3520,1404.8
38.3690,1400.6
38.3860,1395.5
38.4030,1401.1
38.4200,1372.2
38.4370,1392.6
38.4540,1402.5
38.4710,1411.5
38.4880,1419.3
38.5050,1408.2
38.5220,1411.6
38.5390,1409.1
38.5560,1453.5
38.5730,1367.1
38.5900,1385.5
38.6070,1410.7
38.6240,1435.6
38.6410,1397.8
38.6580,1394.6
38.6750,1391.8
38.6920,1452.2
38.7090,1440.2
38.7260,1453.8
38.7430,1375.1
38.7600,1452.6
38.7770,1398.1
38.7940,1400.8
38.8110,1429.0
38.8280,1419.8
38.8450,1524.1
38.8620,1460.5
38.8790,1437.2
38.8960,1453.8
38.9130,1417.9
38.9300,1418.7
38.9470,1447.2
38.9640,1464.6
38.9810,1427.4
38.9980,1434.6
39.0150,1445.1
39.0320,1444.9
39.0490,1413.4
39.0660,1435.1
39.0830,1422.1
39.1000,1441.2
39.1170,1458.1
39.1340,1429.3
39.1510,1465.0
39.1680,1445.2
39.1850,1384.3
39.2020,1389.8
39.2190,1402.3
39.2360,1392.6
39.2530,1419.9
39.2700,1435.5
39.2870,1459.4
39.3040,1464.3
39.3210,1436.6
39.3380,1432.8
39.3550,1459.0
39.3720,1426.6
39.3890,1418.5
39.4060,1394.5
39.4230,1391.8
39.4400,1466.5
39.4570,1441.0
39.4740,1411.1
39.4910,1443.2
39.5080,1412.8
39.5250,1396.4
39.5420,1433.5
39.5590,1411.0
39.5760,1442.5
39.5930,1433.8
39.6100,1412.3
39.6270,1387.1
39.6440,1418.8
39.6610,1397.6
39.6780,1380.6
39.6950,1449.9
39.7120,1372.2
39.7290,1421.8
39.7460,1406.5
39.7630,1473.8
39.7800,1405.5
39.7970,1398.5
39.8140,1405.9
39.8310,1405.8
39.8480,1421.6
39.8650,1456.7
39.8820,1360.6
39.8990,1434.6
39.9160,1444.9
39.9330,1457.5
39.9500,1418.7
39.9670,1430.6
39.9840,1440.1
40.0010,1443.3
40.0180,1463.8
40.0350,1457.1
40.0520,1395.2
40.0690,1415.5
40.0860,1440.4
40.1030,1446.4
40.1200,1435.5
40.1370,1412.1
40.1540,1429.7
40.1710,1426.6
40.1880,1451.0
40.2050,1418.1
40.2220,1404.9
40.2390,1435.9
40.2560,1449.4
40.2730,1440.2
40.2900,1444.6
40.3070,1452.2
40.3240,1422.6
40.3410,1418.2
40.3580,1435.8
40.3750,1414.5
40.3920,1390.1
40.4090,1390.7
40.4260,1389.6
40.4430,1448.4
40.4600,1469.2
40.4770,1456.7
40.4940,1451.5
40.5110,1442.4
40.5280,1433.3
40.5450,1437.3
40.5620,1421.8
40.5790,1357.5
40.5960,1399.0
40.6130,1432.4
40.6300,1452.9
40.6470,1436.3
40.6640,1440.4
40.6810,1429.9
40.6980,1431.2
40.7150,1479.1
40.7320,1420.5
40.7490,1487.4
40.7660,1417.8
40.7830,1478.0
40.8000,1462.5
40.8170,1467.8
40.8340,1435.5
40.8510,1473.5
40.8680,1450.1
40.8850,1464.8
40.9020,1429.4
40.9190,1436.5
40.9360,1460.2
40.9530,1447.1
40.9700,1447.4
40.9870,1439.9
41.0040,1469.1
41.0210,1451.8
41.0380,1414.5
41.0550,1391.8
41.0720,1405.6
41.0890,1434.2
41.1060,1482.7
41.1230,1445.6
41.1400,1439.6
41.1570,1450.1
41.1740,1467.9
41.1910,1481.2
41.2080,1468.2
41.2250,1456.3
41.2420,1461.9
41.2590,1475.8
41.2760,1459.4
41.2930,1496.0
41.3100,1479.0
41.3270,1461.1
41.3440,1431.3
41.3610,1453.3
41.3780,1471.0
41.3950,1422.6
41.4120,1416.7
41.4290,1412.8
41.4460,1429.9
41.4630,1496.3
41.4800,1546.3
41.4970,1501.2
41.5140,1471.1
41.5310,1442.4
41.5480,1461.4
41.5650,1410.9
41.5820,1532.5
41.5990,1445.2
41.6160,1446.8
41.6330,1431.1
41.6500,1482.5
41.6670,1503.1
41.6840,1441.9
41.7010,1474.2
41.7180,1490.1
41.7350,1442.1
41.7520,1430.1
41.7690,1466.9
41.7860,1527.2
41.8030,1500.4
41.8200,1521.3
41.8370,1508.0
41.8540,1477.2
41.8710,1499.5
41.8880,1539.9
41.9050,1552.4
41.9220,1524.6
41.9390,1501.6
41.9560,1483.0
41.9730,1530.4
41.9900,1520.9
42.0070,1518.2
42.0240,1507.2
42.0410,1529.4
42.0580,1565.2
42.0750,1518.5
42.0920,1494.6
42.1090,1504.4
42.1260,1512.4
42.1430,1549.6
42.1600,1543.3
42.1770,1554.2
42.1940,1648.9
42.2110,1582.1
42.2280,1549.5
42.2450,1526.6
42.2620,1548.6
42.2790,1495.2
42.2960,1501.6
42.3130,1556.2
42.3300,1493.8
42.3470,1478.2
42.3640,1548.5
42.3810,1586.8
42.3980,1550.1
42.4150,1537.6
42.4320,1563.4
42.4490,1565.8
42.4660,1516.7
42.4830,1543.7
42.5000,1539.9
42.5170,1555.4
42.5340,1560.0
42.5510,1529.5
42.5680,1553.2
42.5850,1554.8
42.6020,1517.4
42.6190,1493.8
42.6360,1521.9
42.6530,1523.3
42.6700,1562.8
42.6870,1605.1
42.7040,1556.4
42.7210,1532.9
42.7380,1571.9
42.7550,1706.1
42.7720,1577.8
42.7890,1558.8
42.8060,1573.8
42.8230,1615.0
42.8400,1552.1
42.8570,1569.1
42.8740,1554.9
42.8910,1557.0
42.9080,1607.5
42.9250,1647.2
42.9420,1639.4
42.9590,1728.9
42.9760,1777.2
42.9930,1813.8
43.0100,1825.6
43.0270,1824.6
43.0440,1904.0
43.0610,2006.1
43.0780,2110.1
43.0950,2230.9
43.1120,2355.3
43.1290,2596.8
43.1460,2824.6
43.1630,3220.7
43.1800,3811.2
43.1970,4723.5
43.2140,6334.6
43.2310,8629.4
43.2480,11904.0
43.2650,16164.0
43.2820,22290.9
43.2990,29422.4
43.3160,33013.2
43.3330,29519.5
43.3500,22336.2
43.3670,16088.9
43.3840,11931.2
43.4010,9600.6
43.4180,8291.6
43.4350,7352.4
43.4520,6202.9
43.4690,5340.5
43.4860,4601.2
43.5030,4112.0
43.5200,3357.9
43.5370,2791.6
43.5540,2433.5
43.5710,2167.2
43.5880,2123.2
43.6050,1887.1
43.6220,1888.4
43.6390,1887.1
43.6560,2008.4
43.6730,1873.3
43.6900,1915.8
43.7070,1746.2
43.7240,1658.0
43.7410,1719.2
43.7580,1667.6
43.7750,1552.2
43.7920,1604.5
43.8090,1612.7
43.8260,1625.4
43.8430,1644.2
43.8600,1600.7
43.8770,1612.7
43.8940,1621.8
43.9110,1586.6
43.9280,1577.6
43.9450,1525.7
43.9620,1554.5
43.9790,1578.5
43.9960,1569.5
44.0130,1561.3
44.0300,1566.2
44.0470,1572.1
44.0640,1602.9
44.0810,1568.7
44.0980,1549.8
44.1150,1578.7
44.1320,1589.4
44.1490,1578.3
44.1660,1567.8
44.1830,1579.9
44.2000,1579.6
44.2170,1590.5
44.2340,1597.5
44.2510,1590.2
44.2680,1592.3
44.2850,1579.8
44.3020,1564.1
44.3190,1611.2
44.3360,1563.8
44.3530,1530.8
44.3700,1558.7
44.3870,1551.7
44.4040,1517.3
44.4210,1554.0
44.4380,1556.9
44.4550,1601.1
44.4720,1554.9
44.4890,1565.9
44.5060,1520.5
44.5230,1571.2
44.5400,1497.1
44.5570,1544.9
44.5740,1527.8
44.5910,1526.4
44.6080,1566.4
44.6250,1585.1
44.6420,1523.9
44.6590,1537.3
44.6760,1527.7
44.6930,1559.1
44.7100,1620.5
44.7270,1549.6
44.7440,1558.9
44.7610,1542.6
44.7780,1553.4
44.7950,1574.9
44.8120,1557.4
44.8290,1549.4
44.8460,1570.5
44.8630,1559.7
44.8800,1523.1
44.8970,1526.7
44.9140,1552.9
44.9310,1536.1
44.9480,1553.1
44.9650,1555.2
44.9820,1558.2
44.9990,1560.7
45.0160,1554.6
45.0330,1535.3
45.0500,1571.6
45.0670,1565.2
45.0840,1568.9
45.1010,1567.2
45.1180,1553.7
45.1350,1548.8
45.1520,1546.7
45.1690,1559.1
45.1860,1574.1
45.2030,1544.5
45.2200,1569.6
45.2370,1579.1
45.2540,1581.6
45.2710,1596.7
45.2880,1689.4
45.3050,1713.0
45.3220,1740.6
45.3390,1669.6
45.3560,1643.1
45.3730,1583.7
45.3900,1626.4
45.4070,1613.2
45.4240,1567.8
45.4410,1547.8
45.4580,1526.9
45.4750,1496.2
45.4920,1549.3
45.5090,1582.1
45.5260,1522.4
45.5430,1561.4
45.5600,1580.2
45.5770,1535.5
45.5940,1544.9
45.6110,1573.2
45.6280,1546.0
45.6450,1574.2
45.6620,1515.3
45.6790,1535.8
45.6960,1531.5
45.7130,1525.6
45.7300,1552.0
45.7470,1568.1
45.7640,1568.8
45.7810,1565.1
45.7980,1561.3
45.8150,1490.9
45.8320,1569.6
45.8490,1576.3
45.8660,1516.7
45.8830,1513.1
45.9000,1528.9
45.9170,1510.6
45.9340,1505.1
45.9510,1508.2
45.9680,1529.3
45.9850,1563.6
46.0020,1524.9
46.0190,1508.7
46.0360,1519.9
46.0530,1520.6
46.0700,1546.9
46.0870,1560.6
46.1040,1553.7
46.1210,1546.8
46.1380,1513.6
46.1550,1540.2
46.1720,1556.3
46.1890,1512.7
46.2060,1507.3
46.2230,1498.1
46.2400,1533.4
46.2570,1572.1
46.2740,1589.8
46.2910,1582.5
46.3080,1513.2
46.3250,1549.2
46.3420,1549.9
46.3590,1518.3
46.3760,1551.2
46.3930,1491.9
46.4100,1510.4
46.4270,1566.5
46.4440,1589.5
46.4610,1563.1
46.4780,1531.6
46.4950,1527.2
46.5120,1546.4
46.5290,1552.2
46.5460,1555.0
46.5630,1550.9
46.5800,1492.6
46.5970,1609.8
46.6140,1540.5
46.6310,1516.5
46.6480,1526.4
46.6650,1547.5
46.6820,1540.2
46.6990,1545.4
46.7160,1567.1
46.7330,1564.7
46.7500,1513.0
46.7670,1530.4
46.7840,1549.1
46.8010,1504.7
46.8180,1532.1
46.8350,1534.5
46.8520,1542.2
46.8690,1547.9
46.8860,1577.3
46.9030,1550.2
46.9200,1551.9
46.9370,1535.1
46.9540,1553.3
46.9710,1558.4
46.9880,1566.5
47.0050,1589.8
47.0220,1585.4
47.0390,1558.1
47.0560,1543.2
47.0730,1545.5
47.0900,1538.2
47.1070,1543.1
47.1240,1574.6
47.1410,1552.4
47.1580,1559.7
47.1750,1585.8
47.1920,1567.4
47.2090,1575.2
47.2260,1591.3
47.2430,1546.2
47.2600,1516.8
47.2770,1498.9
47.2940,1513.9
47.3110,1514.0
47.3280,1531.9
47.3450,1558.9
47.3620,1506.3
47.3790,1465.4
47.3960,1505.0
47.4130,1521.4
47.4300,1528.1
47.4470,1545.2
47.4640,1533.2
47.4810,1537.8
47.4980,1562.8
47.5150,1514.2
47.5320,1568.0
47.5490,1598.2
47.5660,1566.9
47.5830,1530.3
47.6000,1490.1
47.6170,1540.8
47.6340,1551.7
47.6510,1517.4
47.6680,1554.5
47.6850,1532.4
47.7020,1554.4
47.7190,1542.8
47.7360,1510.6
47.7530,1553.3
47.7700,1572.2
47.7870,1543.2
47.8040,1543.6
47.8210,1506.1
47.8380,1510.5
47.8550,1550.6
47.8720,1560.7
47.8890,1556.2
47.9060,1555.2
47.9230,1495.4
47.9400,1521.7
47.9570,1578.9
47.9740,1544.9
47.9910,1528.3
48.0080,1548.6
48.0250,1542.7
48.0420,1553.4
48.0590,1542.5
48.0760,1535.6
48.0930,1561.9
48.1100,1558.8
48.1270,1540.0
48.1440,1555.8
48.1610,1550.8
48.1780,1532.8
48.1950,1544.4
48.2120,1532.7
48.2290,1512.8
48.2460,1527.1
48.2630,1558.1
48.2800,1512.9
48.2970,1527.5
48.3140,1535.8
48.3310,1551.0
48.3480,1584.6
48.3650,1609.8
48.3820,1588.6
48.3990,1566.8
48.4160,1564.8
48.4330,1591.0
48.4500,1556.5
48.4670,1523.2
48.4840,1622.3
48.5010,1609.6
48.5180,1584.8
48.5350,1547.4
48.5520,1508.3
48.5690,1544.1
48.5860,1534.5
48.6030,1604.2
48.6200,1583.5
48.6370,1699.3
48.6540,1639.0
48.6710,1632.5
48.6880,1783.6
48.7050,1768.0
48.7220,1626.2
48.7390,1660.2
48.7560,1628.9
48.7730,1599.1
48.7900,1648.9
48.8070,1648.4
48.8240,1669.0
48.8410,1637.8
48.8580,1656.2
48.8750,1734.5
48.8920,1661.9
48.9090,1659.3
48.9260,1648.1
48.9430,1650.7
48.9600,1677.5
48.9770,1669.1
48.9940,1669.8
49.0110,1665.1
49.0280,1648.9
49.0450,1631.2
49.0620,1635.9
49.0790,1651.5
49.0960,1674.4
49.1130,1664.8
49.1300,1676.2
49.1470,1662.1
49.1640,1649.4
49.1810,1682.2
49.1980,1605.9
49.2150,1621.4
49.2320,1627.3
49.2490,1636.1
49.2660,1699.6
49.2830,1676.8
49.3000,1675.5
49.3170,1714.4
49.3340,1689.4
49.3510,1694.5
49.3680,1670.4
49.3850,1662.2
49.4020,1697.6
49.4190,1690.2
49.4360,1661.7
49.4530,1659.3
49.4700,1694.2
49.4870,1666.8
49.5040,1682.8
49.5210,1725.2
49.5380,1679.4
49.5550,1654.4
49.5720,1677.4
49.5890,1683.6
49.6060,1677.6
49.6230,1689.6
49.6400,1714.5
49.6570,1706.5
49.6740,1698.2
49.6910,1686.7
49.7080,1715.4
49.7250,1736.5
49.7420,1724.0
49.7590,1643.8
49.7760,1643.7
49.7930,1688.6
49.8100,1714.9
49.8270,1728.5
49.8440,1721.5
49.8610,1735.1
49.8780,1827.6
49.8950,1741.9
49.9120,1741.4
49.9290,1766.7
49.9460,1815.5
49.9630,1901.6
49.9800,1878.0
49.9970,1848.4
50.0140,1884.8
50.0310,1866.1
50.0480,1893.6
50.0650,2052.4
50.0820,2139.1
50.0990,2165.6
50.1160,2330.6
50.1330,2513.1
50.1500,2718.0
50.1670,2903.3
50.1840,3061.0
50.2010,3212.5
50.2180,3351.2
50.2350,3660.2
50.2520,3716.1
50.2690,4082.9
50.2860,4865.7
50.3030,5749.2
50.3200,7596.8
50.3370,10762.8
50.3540,15551.5
50.3710,22968.8
50.3880,34149.9
50.4050,49744.4
50.4220,66349.1
50.4390,74767.8
50.4560,67435.6
50.4730,51398.8
50.4900,35831.7
50.5070,23370.5
50.5240,15288.1
50.5410,10886.5
50.5580,8445.1
50.5750,6824.7
50.5920,5677.5
50.6090,5271.4
50.6260,4510.2
50.6430,4233.4
50.6600,3579.9
50.6770,3247.8
50.6940,2823.6
50.7110,2732.9
50.7280,2388.7
50.7450,2033.6
50.7620,2049.8
50.7790,1907.1
50.7960,1985.8
50.8130,1951.2
50.8300,1966.2
50.8470,1892.7
50.8640,1941.4
50.8810,2023.5
50.8980,1953.9
50.9150,1995.0
50.9320,1911.9
50.9490,1854.1
50.9660,1730.5
50.9830,1771.0
51.0000,1785.8
51.0170,1767.3
51.0340,1771.1
51.0510,1755.9
51.0680,1737.4
51.0850,1729.4
51.1020,1757.3
51.1190,1838.1
51.1360,1773.6
51.1530,1736.6
51.1700,1745.4
51.1870,1718.9
51.2040,1717.8
51.2210,1728.2
51.2380,1678.5
51.2550,1612.2
51.2720,1695.9
51.2890,1693.9
51.3060,1674.9
51.3230,1656.1
51.3400,1643.6
51.3570,1685.3
51.3740,1689.7
51.3910,1685.5
51.4080,1694.5
51.4250,1709.6
51.4420,1566.4
51.4590,1680.5
51.4760,1626.2
51.4930,1664.3
51.5100,1695.6
51.5270,1610.9
51.5440,1640.8
51.5610,1640.6
51.5780,1695.6
51.5950,1656.8
51.6120,1653.9
51.6290,1666.6
51.6460,1646.8
51.6630,1674.0
51.6800,1657.8
51.6970,1655.6
51.7140,1662.3
51.7310,1604.4
51.7480,1628.6
51.7650,1655.8
51.7820,1666.2
51.7990,1637.5
51.8160,1629.1
51.8330,1632.4
51.8500,1653.1
51.8670,1635.9
51.8840,1588.1
51.9010,1606.4
51.9180,1612.1
51.9350,1613.8
51.9520,1625.9
51.9690,1623.6
51.9860,1618.6
52.0030,1643.3
52.0200,1629.2
52.0370,1585.4
52.0540,1592.4
52.0710,1614.1
52.0880,1596.5
52.1050,1556.6
52.1220,1568.4
52.1390,1606.2
52.1560,1596.1
52.1730,1630.7
52.1900,1638.6
52.2070,1584.8
52.2240,1583.1
52.2410,1616.0
52.2580,1617.8
52.2750,1644.4
52.2920,1618.5
52.3090,1610.2
52.3260,1596.1
52.3430,1579.2
52.3600,1554.8
52.3770,1615.1
52.3940,1616.7
52.4110,1627.6
52.4280,1618.6
52.4450,1562.4
52.4620,1527.1
52.4790,1622.0
52.4960,1574.8
52.5130,1590.5
52.5300,1628.4
52.5470,1586.2
52.5640,1587.6
52.5810,1569.6
52.5980,1622.8
52.6150,1557.4
52.6320,1579.2
52.6490,1582.2
52.6660,1585.7
52.6830,1582.9
52.7000,1616.5
52.7170,1670.9
52.7340,1635.4
52.7510,1609.1
52.7680,1596.1
52.7850,1613.5
52.8020,1605.2
52.8190,1593.5
52.8360,1602.2
52.8530,1624.0
52.8700,1654.3
52.8870,1625.6
52.9040,1600.8
52.9210,1565.5
52.9380,1558.5
52.9550,1582.9
52.9720,1598.7
52.9890,1625.4
53.0060,1614.6
53.0230,1608.1
53.0400,1606.9
53.0570,1572.6
53.0740,1567.1
53.0910,1570.8
53.1080,1614.6
53.1250,1605.5
53.1420,1565.8
53.1590,1579.4
53.1760,1604.0
53.1930,1632.4
53.2100,1577.2
53.2270,1609.2
53.2440,1566.1
53.2610,1584.0
53.2780,1585.1
53.2950,1599.4
53.3120,1557.2
53.3290,1560.9
53.3460,1577.4
53.3630,1599.5
53.3800,1594.3
53.3970,1630.5
53.4140,1622.1
53.4310,1622.4
53.4480,1608.2
53.4650,1550.2
53.4820,1586.5
53.4990,1610.6
53.5160,1616.2
53.5330,1544.1
53.5500,1607.4
53.5670,1565.9
53.5840,1565.5
53.6010,1572.2
53.6180,1559.1
53.6350,1561.8
53.6520,1588.5
53.6690,1561.5
53.6860,1525.2
53.7030,1591.1
53.7200,1579.2
53.7370,1610.5
53.7540,1557.7
53.7710,1600.2
53.7880,1585.5
53.8050,1546.3
53.8220,1551.0
53.8390,1552.1
53.8560,1570.1
53.8730,1573.1
53.8900,1588.8
53.9070,1555.4
53.9240,1595.6
53.9410,1618.5
53.9580,1578.2
53.9750,1581.8
53.9920,1575.9
54.0090,1544.4
54.0260,1567.8
54.0430,1578.6
54.0600,1540.2
54.0770,1546.5
54.0940,1585.9
54.1110,1571.1
54.1280,1603.5
54.1450,1595.4
54.1620,1586.6
54.1790,1609.5
54.1960,1568.6
54.2130,1564.8
54.2300,1609.4
54.2470,1615.9
54.2640,1616.6
54.2810,1651.7
54.2980,1550.9
54.3150,1551.3
54.3320,1570.9
54.3490,1555.3
54.3660,1589.5
54.3830,1550.5
54.4000,1557.1
54.4170,1530.1
54.4340,1594.3
54.4510,1583.1
54.4680,1581.4
54.4850,1527.2
54.5020,1594.4
54.5190,1599.4
54.5360,1573.0
54.5530,1559.9
54.5700,1607.2
54.5870,1612.4
54.6040,1645.1
54.6210,1550.2
54.6380,1557.0
54.6550,1618.4
54.6720,1573.5
54.6890,1536.1
54.7060,1586.8
54.7230,1599.8
54.7400,1593.5
54.7570,1555.6
54.7740,1599.5
54.7910,1623.8
54.8080,1625.9
54.8250,1706.9
54.8420,1733.5
54.8590,1673.6
54.8760,1603.7
54.8930,1599.5
54.9100,1607.9
54.9270,1606.4
54.9440,1612.6
54.9610,1621.2
54.9780,1609.1
54.9950,1611.9
55.0120,1642.1
55.0290,1625.6
55.0460,1587.4
55.0630,1591.6
55.0800,1570.6
55.0970,1580.9
55.1140,1581.5
55.1310,1605.2
55.1480,1591.8
55.1650,1571.2
55.1820,1559.9
55.1990,1599.1
55.2160,1715.5
55.2330,1514.8
55.2500,1513.6
55.2670,1544.1
55.2840,1606.8
55.3010,1574.8
55.3180,1630.6
55.3350,1561.6
55.3520,1589.9
55.3690,1635.2
55.3860,1599.3
55.4030,1498.0
55.4200,1592.5
55.4370,1569.3
55.4540,1572.9
55.4710,1555.3
55.4880,1560.0
55.5050,1558.5
55.5220,1539.1
55.5390,1619.8
55.5560,1596.0
55.5730,1532.5
55.5900,1542.9
55.6070,1588.4
55.6240,1579.2
55.6410,1584.1
55.6580,1613.1
55.6750,1535.4
55.6920,1557.5
55.7090,1564.4
55.7260,1555.5
55.7430,1579.3
55.7600,1584.5
55.7770,1590.5
55.7940,1565.3
55.8110,1538.1
55.8280,1543.2
55.8450,1594.9
55.8620,1591.5
55.8790,1568.9
55.8960,1584.4
55.9130,1589.0
55.9300,1556.6
55.9470,1551.7
55.9640,1565.2
55.9810,1596.0
55.9980,1530.1
56.0150,1502.6
56.0320,1547.8
56.0490,1594.1
56.0660,1608.2
56.0830,1561.8
56.1000,1528.2
56.1170,1547.9
56.1340,1547.3
56.1510,1570.5
56.1680,1609.1
56.1850,1591.4
56.2020,1550.5
56.2190,1557.6
56.2360,1536.9
56.2530,1567.0
56.2700,1567.0
56.2870,1570.4
56.3040,1621.9
56.3210,1587.4
56.3380,1573.4
56.3550,1501.2
56.3720,1538.3
56.3890,1576.1
56.4060,1588.3
56.4230,1517.1
56.4400,1582.4
56.4570,1571.8
56.4740,1555.9
56.4910,1598.8
56.5080,1548.7
56.5250,1561.1
56.5420,1578.5
56.5590,1571.8
56.5760,1582.5
56.5930,1556.4
56.6100,1532.2
56.6270,1553.5
56.6440,1577.8
56.6610,1590.5
56.6780,1597.8
56.6950,1578.2
56.7120,1582.2
56.7290,1598.9
56.7460,1565.9
56.7630,1579.8
56.7800,1559.5
56.7970,1535.3
56.8140,1542.9
56.8310,1590.8
56.8480,1617.9
56.8650,1598.7
56.8820,1577.0
56.8990,1563.9
56.9160,1609.4
56.9330,1598.9
56.9500,1579.1
56.9670,1531.8
56.9840,1531.1
57.0010,1565.1
57.0180,1565.2
57.0350,1551.8
57.0520,1533.5
57.0690,1544.5
57.0860,1599.5
57.1030,1573.1
57.1200,1543.4
57.1370,1550.6
57.1540,1561.5
57.1710,1569.1
57.1880,1573.5
57.2050,1609.8
57.2220,1558.9
57.2390,1559.8
57.2560,1601.5
57.2730,1559.4
57.2900,1534.8
57.3070,1567.2
57.3240,1618.4
57.3410,1623.2
57.3580,1592.6
57.3750,1554.4
57.3920,1560.7
57.4090,1557.2
57.4260,1575.9
57.4430,1558.1
57.4600,1543.9
57.4770,1561.8
57.4940,1621.5
57.5110,1607.8
57.5280,1512.5
57.5450,1566.9
57.5620,1552.2
57.5790,1585.5
57.5960,1560.5
57.6130,1553.1
57.6300,1554.5
57.6470,1546.9
57.6640,1562.0
57.6810,1573.2
57.6980,1495.6
57.7150,1479.8
57.7320,1573.9
57.7490,1602.4
57.7660,1575.1
57.7830,1561.2
57.8000,1565.5
57.8170,1586.8
57.8340,1549.8
57.8510,1532.6
57.8680,1575.2
57.8850,1578.6
57.9020,1571.6
57.9190,1564.5
57.9360,1557.2
57.9530,1558.4
57.9700,1533.4
57.9870,1557.9
58.0040,1586.9
58.0210,1569.2
58.0380,1554.8
58.0550,1536.2
58.0720,1557.4
58.0890,1594.6
58.1060,1588.4
58.1230,1593.7
58.1400,1591.5
58.1570,1629.9
58.1740,1609.4
58.1910,1550.8
58.2080,1546.5
58.2250,1540.0
58.2420,1556.9
58.2590,1570.9
58.2760,1568.8
58.2930,1564.1
58.3100,1532.7
58.3270,1531.6
58.3440,1587.2
58.3610,1543.1
58.3780,1561.0
58.3950,1560.4
58.4120,1551.9
58.4290,1568.4
58.4460,1604.5
58.4630,1575.9
58.4800,1497.8
58.4970,1543.1
58.5140,1545.9
58.5310,1574.6
58.5480,1554.1
58.5650,1571.4
58.5820,1563.9
58.5990,1591.5
58.6160,1536.8
58.6330,1552.2
58.6500,1584.6
58.6670,1532.4
58.6840,1557.6
58.7010,1597.9
58.7180,1578.4
58.7350,1552.5
58.7520,1558.9
58.7690,1542.5
58.7860,1551.6
58.8030,1562.1
58.8200,1563.9
58.8370,1578.4
58.8540,1582.7
58.8710,1545.4
58.8880,1538.4
58.9050,1576.2
58.9220,1561.5
58.9390,1524.7
58.9560,1568.4
58.9730,1573.9
58.9900,1571.2
59.0070,1541.9
59.0240,1525.9
59.0410,1542.7
59.0580,1582.9
59.0750,1532.8
59.0920,1531.1
59.1090,1562.4
59.1260,1536.7
59.1430,1547.6
59.1600,1543.2
59.1770,1575.8
59.1940,1540.1
59.2110,1541.1
59.2280,1545.6
59.2450,1587.5
59.2620,1580.6
59.2790,1587.8
59.2960,1551.5
59.3130,1543.9
59.3300,1543.2
59.3470,1546.9
59.3640,1544.2
59.3810,1532.9
59.3980,1547.6
59.4150,1541.6
59.4320,1535.3
59.4490,1541.6
59.4660,1562.4
59.4830,1495.1
59.5000,1603.5
59.5170,1532.7
59.5340,1560.2
59.5510,1562.9
59.5680,1560.2
59.5850,1548.9
59.6020,1576.5
59.6190,1535.7
59.6360,1517.5
59.6530,1558.6
59.6700,1567.5
59.6870,1559.6
59.7040,1554.1
59.7210,1571.8
59.7380,1586.2
59.7550,1603.8
59.7720,1583.3
59.7890,1571.0
59.8060,1555.5
59.8230,1564.4
59.8400,1571.2
59.8570,1574.5
59.8740,1580.6
59.8910,1558.2
59.9080,1544.6
59.9250,1522.7
59.9420,1533.5
59.9590,1524.7
59.9760,1505.5
59.9930,1531.8
60.0100,1560.4
60.0270,1550.2
60.0440,1555.0
60.0610,1571.5
60.0780,1579.9
60.0950,1576.5
60.1120,1538.1
60.1290,1573.8
60.1460,1600.8
60.1630,1562.4
60.1800,1521.1
60.1970,1524.4
60.2140,1547.1
60.2310,1551.4
60.2480,1587.4
60.2650,1558.0
60.2820,1496.0
60.2990,1533.6
60.3160,1621.5
60.3330,1594.8
60.3500,1558.1
60.3670,1529.0
60.3840,1562.1
60.4010,1578.9
60.4180,1560.3
60.4350,1548.8
60.4520,1548.9
60.4690,1592.0
60.4860,1528.5
60.5030,1534.2
60.5200,1510.6
60.5370,1586.1
60.5540,1600.8
60.5710,1566.9
60.5880,1594.5
60.6050,1542.0
60.6220,1587.3
60.6390,1545.9
60.6560,1576.0
60.6730,1574.4
60.6900,1548.6
60.7070,1543.1
60.7240,1561.8
60.7410,1589.5
60.7580,1564.9
60.7750,1546.2
60.7920,1533.5
60.8090,1526.0
60.8260,1541.4
60.8430,1531.6
60.8600,1542.8
60.8770,1571.8
60.8940,1566.3
60.9110,1540.1
60.9280,1559.7
60.9450,1601.5
60.9620,1576.7
60.9790,1557.1
60.9960,1570.8
61.0130,1520.2
61.0300,1524.1
61.0470,1526.1
61.0640,1542.1
61.0810,1512.5
61.0980,1537.2
61.1150,1543.1
61.1320,1588.4
61.1490,1532.1
61.1660,1548.8
61.1830,1543.7
61.2000,1522.7
61.2170,1515.9
61.2340,1487.4
61.2510,1573.1
61.2680,1557.9
61.2850,1556.9
61.3020,1577.2
61.3190,1671.6
61.3360,1581.3
61.3530,1525.1
61.3700,1572.1
61.3870,1541.6
61.4040,1553.5
61.4210,1579.1
61.4380,1592.2
61.4550,1533.4
61.4720,1569.6
61.4890,1548.2
61.5060,1553.3
61.5230,1587.5
61.5400,1548.0
61.5570,1548.0
61.5740,1547.1
61.5910,1533.8
61.6080,1562.8
61.6250,1557.6
61.6420,1519.2
61.6590,1524.5
61.6760,1563.8
61.6930,1561.8
61.7100,1573.4
61.7270,1544.1
61.7440,1498.2
61.7610,1518.3
61.7780,1539.7
61.7950,1552.1
61.8120,1569.8
61.8290,1579.9
61.8460,1547.2
61.8630,1565.5
61.8800,1557.5
61.8970,1566.8
61.9140,1593.5
61.9310,1566.8
61.9480,1532.1
61.9650,1534.8
61.9820,1562.3
61.9990,1552.9
62.0160,1582.4
62.0330,1569.1
62.0500,1508.7
62.0670,1551.5
62.0840,1544.9
62.1010,1561.2
62.1180,1579.6
62.1350,1574.3
62.1520,1578.1
62.1690,1560.8
62.1860,1528.6
62.2030,1571.9
62.2200,1583.0
62.2370,1534.5
62.2540,1526.2
62.2710,1527.1
62.2880,1483.6
62.3050,1542.7
62.3220,1562.2
62.3390,1684.2
62.3560,1545.8
62.3730,1589.5
62.3900,1579.2
62.4070,1551.5
62.4240,1558.5
62.4410,1533.8
62.4580,1519.6
62.4750,1592.3
62.4920,1562.8
62.5090,1530.2
62.5260,1582.2
62.5430,1582.6
62.5600,1542.9
62.5770,1512.8
62.5940,1555.5
62.6110,1534.1
62.6280,1568.9
62.6450,1583.1
62.6620,1565.8
62.6790,1533.3
62.6960,1571.5
62.7130,1591.9
62.7300,1543.1
62.7470,1560.8
62.7640,1572.6
62.7810,1551.2
62.7980,1552.8
62.8150,1532.5
62.8320,1510.3
62.8490,1532.5
62.8660,1555.5
62.8830,1547.6
62.9000,1540.8
62.9170,1538.8
62.9340,1566.6
62.9510,1560.2
62.9680,1561.5
62.9850,1537.7
63.0020,1548.5
63.0190,1543.2
63.0360,1594.0
63.0530,1579.4
63.0700,1599.9
63.0870,1564.9
63.1040,1545.8
63.1210,1527.1
63.1380,1543.2
63.1550,1534.0
63.1720,1579.6
63.1890,1544.5
63.2060,1581.5
63.2230,1543.2
63.2400,1575.6
63.2570,1539.6
63.2740,1583.6
63.2910,1619.4
63.3080,1530.8
63.3250,1539.3
63.3420,1484.5
63.3590,1552.1
63.3760,1494.3
63.3930,1564.9
63.4100,1592.9
63.4270,1556.8
63.4440,1506.6
63.4610,1534.4
63.4780,1570.8
63.4950,1554.1
63.5120,1586.1
63.5290,1556.9
63.5460,1572.3
63.5630,1579.1
63.5800,1609.9
63.5970,1576.2
63.6140,1580.2
63.6310,1584.2
63.6480,1589.1
63.6650,1606.4
63.6820,1594.2
63.6990,1564.7
63.7160,1561.3
63.7330,1580.6
63.7500,1557.6
63.7670,1551.2
63.7840,1554.9
63.8010,1569.5
63.8180,1576.2
63.8350,1545.9
63.8520,1529.1
63.8690,1532.1
63.8860,1568.1
63.9030,1599.9
63.9200,1581.9
63.9370,1576.0
63.9540,1497.5
63.9710,1523.1
63.9880,1556.3
64.0050,1546.5
64.0220,1570.2
64.0390,1557.3
64.0560,1547.1
64.0730,1562.6
64.0900,1539.5
64.1070,1521.2
64.1240,1615.9
64.1410,1550.3
64.1580,1542.6
64.1750,1596.8
64.1920,1546.1
64.2090,1562.2
64.2260,1562.9
64.2430,1756.4
64.2600,1541.8
64.2770,1605.5
64.2940,1657.4
64.3110,1596.2
64.3280,1541.5
64.3450,1639.8
64.3620,1540.2
64.3790,1544.4
64.3960,1551.6
64.4130,1578.4
64.4300,1584.2
64.4470,1572.2
64.4640,1587.5
64.4810,1518.6
64.4980,1576.0
64.5150,1562.9
64.5320,1605.6
64.5490,1551.1
64.5660,1538.9
64.5830,1569.8
64.6000,1580.6
64.6170,1558.3
64.6340,1549.5
64.6510,1585.8
64.6680,1535.0
64.6850,1537.6
64.7020,1580.2
64.7190,1600.5
64.7360,1607.0
64.7530,1573.7
64.7700,1552.6
64.7870,1546.2
64.8040,1535.4
64.8210,1557.7
64.8380,1552.6
64.8550,1549.0
64.8720,1582.1
64.8890,1600.5
64.9060,1608.1
64.9230,1592.8
64.9400,1587.6
64.9570,1549.7
64.9740,1563.5
64.9910,1602.1
65.0080,1586.7
65.0250,1564.1
65.0420,1536.2
65.0590,1569.5
65.0760,1544.9
65.0930,1543.8
65.1100,1556.1
65.1270,1543.6
65.1440,1571.6
65.1610,1612.5
65.1780,1586.1
65.1950,1555.1
65.2120,1539.9
65.2290,1541.0
65.2460,1572.1
65.2630,1556.5
65.2800,1549.5
65.2970,1557.0
65.3140,1542.5
65.3310,1563.6
65.3480,1528.6
65.3650,1594.0
65.3820,1701.1
65.3990,1618.7
65.4160,1566.6
65.4330,1577.0
65.4500,1587.2
65.4670,1500.4
65.4840,1587.7
65.5010,1596.1
65.5180,1550.9
65.5350,1564.8
65.5520,1563.1
65.5690,1579.0
65.5860,1562.5
65.6030,1557.1
65.6200,1589.6
65.6370,1564.5
65.6540,1528.5
65.6710,1583.9
65.6880,1565.9
65.7050,1549.8
65.7220,1579.3
65.7390,1583.1
65.7560,1569.1
65.7730,1587.1
65.7900,1585.8
65.8070,1549.4
65.8240,1544.0
65.8410,1606.5
65.8580,1579.2
65.8750,1535.6
65.8920,1564.9
65.9090,1612.5
65.9260,1620.9
65.9430,1618.6
65.9600,1594.9
65.9770,1578.0
65.9940,1591.9
66.0110,1561.1
66.0280,1597.8
66.0450,1638.8
66.0620,1587.1
66.0790,1571.6
66.0960,1566.4
66.1130,1584.2
66.1300,1524.8
66.1470,1538.5
66.1640,1562.5
66.1810,1559.5
66.1980,1645.8
66.2150,1625.1
66.2320,1607.3
66.2490,1567.2
66.2660,1618.8
66.2830,1628.0
66.3000,1578.5
66.3170,1553.1
66.3340,1541.6
66.3510,1597.6
66.3680,1576.1
66.3850,1590.5
66.4020,1552.3
66.4190,1571.4
66.4360,1547.1
66.4530,1581.3
66.4700,1586.6
66.4870,1592.8
66.5040,1544.0
66.5210,1575.5
66.5380,1569.4
66.5550,1590.6
66.5720,1568.3
66.5890,1557.8
66.6060,1573.0
66.6230,1604.0
66.6400,1587.6
66.6570,1580.1
66.6740,1566.5
66.6910,1575.5
66.7080,1583.4
66.7250,1574.5
66.7420,1581.2
66.7590,1553.1
66.7760,1569.2
66.7930,1557.4
66.8100,1578.9
66.8270,1577.2
66.8440,1566.1
66.8610,1597.8
66.8780,1578.9
66.8950,1592.5
66.9120,1570.1
66.9290,1601.8
66.9460,1566.5
66.9630,1558.6
66.9800,1569.4
66.9970,1592.5
67.0140,1598.2
67.0310,1553.5
67.0480,1546.6
67.0650,1557.2
67.0820,1574.4
67.0990,1550.5
67.1160,1575.8
67.1330,1603.9
67.1500,1583.4
67.1670,1541.5
67.1840,1549.9
67.2010,1566.7
67.2180,1592.1
67.2350,1566.1
67.2520,1627.5
67.2690,1555.9
67.2860,1575.1
67.3030,1637.2
67.3200,1592.3
67.3370,1591.9
67.3540,1513.8
67.3710,1576.1
67.3880,1604.2
67.4050,1525.7
67.4220,1508.9
67.4390,1569.7
67.4560,1549.8
67.4730,1563.4
67.4900,1582.7
67.5070,1545.5
67.5240,1538.8
67.5410,1568.1
67.5580,1582.8
67.5750,1546.9
67.5920,1545.4
67.6090,1552.6
67.6260,1561.5
67.6430,1555.0
67.6600,1587.8
67.6770,1600.7
67.6940,1610.5
67.7110,1584.9
67.7280,1551.9
67.7450,1566.8
67.7620,1579.0
67.7790,1579.2
67.7960,1579.6
67.8130,1542.8
67.8300,1557.2
67.8470,1577.2
67.8640,1578.4
67.8810,1552.3
67.8980,1541.4
67.9150,1549.6
67.9320,1590.8
67.9490,1570.1
67.9660,1555.4
67.9830,1564.5
68.0000,1603.4
68.0170,1592.4
68.0340,1579.4
68.0510,1538.8
68.0680,1553.3
68.0850,1575.5
68.1020,1597.4
68.1190,1572.0
68.1360,1569.6
68.1530,1534.2
68.1700,1569.1
68.1870,1567.8
68.2040,1519.1
68.2210,1575.8
68.2380,1678.6
68.2550,1593.9
68.2720,1621.4
68.2890,1580.6
68.3060,1606.6
68.3230,1613.4
68.3400,1556.7
68.3570,1567.9
68.3740,1565.5
68.3910,1558.9
68.4080,1586.9
68.4250,1540.4
68.4420,1579.8
68.4590,1605.5
68.4760,1549.9
68.4930,1564.2
68.5100,1553.1
68.5270,1570.6
68.5440,1564.2
68.5610,1568.3
68.5780,1571.8
68.5950,1552.2
68.6120,1555.6
68.6290,1565.9
68.6460,1563.3
68.6630,1552.8
68.6800,1568.3
68.6970,1606.4
68.7140,1627.4
68.7310,1602.3
68.7480,1606.9
68.7650,1604.3
68.7820,1591.8
68.7990,1571.6
68.8160,1551.5
68.8330,1591.8
68.8500,1603.8
68.8670,1585.1
68.8840,1587.0
68.9010,1586.2
68.9180,1573.0
68.9350,1573.9
68.9520,1587.5
68.9690,1581.1
68.9860,1598.8
69.0030,1590.3
69.0200,1513.7
69.0370,1498.2
69.0540,1581.0
69.0710,1563.5
69.0880,1539.8
69.1050,1552.3
69.1220,1557.0
69.1390,1557.1
69.1560,1561.1
69.1730,1595.6
69.1900,1603.4
69.2070,1578.0
69.2240,1578.7
69.2410,1588.3
69.2580,1560.5
69.2750,1554.8
69.2920,1584.1
69.3090,1597.7
69.3260,1546.2
69.3430,1566.7
69.3600,1592.6
69.3770,1570.5
69.3940,1559.4
69.4110,1523.4
69.4280,1610.0
69.4450,1622.6
69.4620,1570.8
69.4790,1598.4
69.4960,1588.1
69.5130,1574.6
69.5300,1583.0
69.5470,1565.9
69.5640,1549.8
69.5810,1563.2
69.5980,1567.3
69.6150,1572.7
69.6320,1585.0
69.6490,1601.6
69.6660,1610.3
69.6830,1596.6
69.7000,1557.5
69.7170,1548.9
69.7340,1546.3
69.7510,1537.1
69.7680,1571.6
69.7850,1580.8
69.8020,1563.2
69.8190,1581.4
69.8360,1572.5
69.8530,1596.4
69.8700,1601.1
69.8870,1587.4
69.9040,1609.4
69.9210,1598.8
69.9380,1593.8
69.9550,1560.1
69.9720,1594.1
69.9890,1597.4
70.0060,1617.2
70.0230,1583.9
70.0400,1522.4
70.0570,1575.2
70.0740,1549.0
70.0910,1597.1
70.1080,1595.8
70.1250,1562.8
70.1420,1606.7
70.1590,1587.2
70.1760,1606.5
70.1930,1613.8
70.2100,1593.3
70.2270,1566.5
70.2440,1573.9
70.2610,1572.6
70.2780,1579.5
70.2950,1544.1
70.3120,1607.7
70.3290,1572.1
70.3460,1592.9
70.3630,1637.2
70.3800,1591.0
70.3970,1576.3
70.4140,1593.8
70.4310,1544.4
70.4480,1568.5
70.4650,1605.8
70.4820,1573.4
70.4990,1610.8
70.5160,1591.6
70.5330,1584.3
70.5500,1573.7
70.5670,1584.3
70.5840,1574.2
70.6010,1593.9
70.6180,1592.7
70.6350,1605.2
70.6520,1623.1
70.6690,1609.2
70.6860,1614.4
70.7030,1635.5
70.7200,1609.5
70.7370,1568.8
70.7540,1565.5
70.7710,1575.4
70.7880,1599.7
70.8050,1624.5
70.8220,1584.3
70.8390,1588.1
70.8560,1574.2
70.8730,1594.6
70.8900,1619.5
70.9070,1610.1
70.9240,1588.6
70.9410,1721.6
70.9580,1633.5
70.9750,1608.6
70.9920,1599.9
71.0090,1567.4
71.0260,1574.0
71.0430,1576.0
71.0600,1608.5
71.0770,1617.3
71.0940,1620.9
71.1110,1601.8
71.1280,1582.2
71.1450,1571.8
71.1620,1617.4
71.1790,1623.6
71.1960,1618.0
71.2130,1634.3
71.2300,1635.4
71.2470,1580.8
71.2640,1641.8
71.2810,1634.2
71.2980,1555.0
71.3150,1513.2
71.3320,1614.3
71.3490,1633.0
71.3660,1602.2
71.3830,1620.3
71.4000,1594.7
71.4170,1623.5
71.4340,1645.3
71.4510,1616.6
71.4680,1594.6
71.4850,1606.9
71.5020,1652.5
71.5190,1640.4
71.5360,1582.9
71.5530,1582.1
71.5700,1598.2
71.5870,1583.9
71.6040,1567.2
71.6210,1589.4
71.6380,1645.5
71.6550,1667.3
71.6720,1637.6
71.6890,1600.1
71.7060,1604.0
71.7230,1650.7
71.7400,1629.4
71.7570,1620.4
71.7740,1640.6
71.7910,1620.4
71.8080,1643.1
71.8250,1658.0
71.8420,1626.5
71.8590,1635.0
71.8760,1635.4
71.8930,1640.0
71.9100,1622.5
71.9270,1599.0
71.9440,1615.7
71.9610,1628.4
71.9780,1651.8
71.9950,1677.0
72.0120,1612.6
72.0290,1610.2
72.0460,1665.6
72.0630,1736.4
72.0800,1676.5
72.0970,1650.7
72.1140,1630.7
72.1310,1643.3
72.1480,1660.6
72.1650,1607.4
72.1820,1610.2
72.1990,1567.5
72.2160,1606.1
72.2330,1594.4
72.2500,1630.6
72.2670,1593.8
72.2840,1609.2
72.3010,1658.9
72.3180,1623.9
72.3350,1588.2
72.3520,1547.2
72.3690,1616.4
72.3860,1649.4
72.4030,1576.2
72.4200,1597.1
72.4370,1616.1
72.4540,1648.8
72.4710,1646.8
72.4880,1659.4
72.5050,1647.6
72.5220,1627.2
72.5390,1646.6
72.5560,1657.4
72.5730,1679.9
72.5900,1677.8
72.6070,1673.1
72.6240,1641.1
72.6410,1613.6
72.6580,1672.3
72.6750,1689.2
72.6920,1626.5
72.7090,1602.8
72.7260,1614.2
72.7430,1603.2
72.7600,1625.0
72.7770,1656.8
72.7940,1653.3
72.8110,1641.5
72.8280,1633.9
72.8450,1632.7
72.8620,1628.6
72.8790,1638.2
72.8960,1640.5
72.9130,1618.4
72.9300,1642.4
72.9470,1662.8
72.9640,1627.0
72.9810,1610.3
72.9980,1601.0
73.0150,1634.1
73.0320,1651.4
73.0490,1643.1
73.0660,1674.2
73.0830,1646.5
73.1000,1669.8
73.1170,1666.9
73.1340,1662.6
73.1510,1610.0
73.1680,1644.6
73.1850,1686.8
73.2020,1697.7
73.2190,1675.6
73.2360,1653.5
73.2530,1645.8
73.2700,1644.0
73.2870,1658.2
73.3040,1630.8
73.3210,1659.2
73.3380,1665.4
73.3550,1702.5
73.3720,1681.6
73.3890,1721.5
73.4060,1695.8
73.4230,1660.8
73.4400,1671.2
73.4570,1641.6
73.4740,1637.4
73.4910,1675.1
73.5080,1661.4
73.5250,1669.5
73.5420,1695.6
73.5590,1739.1
73.5760,1773.4
73.5930,1783.4
73.6100,1840.8
73.6270,1886.0
73.6440,1902.1
73.6610,1907.8
73.6780,1986.8
73.6950,2016.5
73.7120,2026.9
73.7290,2056.2
73.7460,2026.5
73.7630,2022.4
73.7800,2096.9
73.7970,2174.8
73.8140,2173.9
73.8310,2224.8
73.8480,2305.0
73.8650,2356.9
73.8820,2430.0
73.8990,2602.9
73.9160,2828.4
73.9330,3155.6
73.9500,3732.2
73.9670,4702.0
73.9840,6225.3
74.0010,8819.6
74.0180,12956.5
74.0350,18760.2
74.0520,26018.8
74.0690,30650.4
74.0860,28981.1
74.1030,23862.6
74.1200,18199.5
74.1370,13218.0
74.1540,9519.8
74.1710,7092.6
74.1880,5614.3
74.2050,4550.3
74.2220,3806.4
74.2390,3325.3
74.2560,2951.2
74.2730,2752.5
74.2900,2337.9
74.3070,2492.0
74.3240,2400.4
74.3410,2219.1
74.3580,2293.1
74.3750,2180.3
74.3920,2132.8
74.4090,2062.8
74.4260,2025.6
74.4430,2003.7
74.4600,2010.1
74.4770,1927.7
74.4940,1863.9
74.5110,1937.1
74.5280,1839.5
74.5450,1796.3
74.5620,1747.5
74.5790,1661.5
74.5960,1704.8
74.6130,1762.9
74.6300,1728.6
74.6470,1705.8
74.6640,1686.6
74.6810,1685.2
74.6980,1752.0
74.7150,1748.3
74.7320,1692.4
74.7490,1745.6
74.7660,1737.7
74.7830,1701.2
74.8000,1705.9
74.8170,1717.6
74.8340,1684.4
74.8510,1767.7
74.8680,1716.2
74.8850,1734.9
74.9020,1729.9
74.9190,1664.0
74.9360,1653.3
74.9530,1732.2
74.9700,1639.7
74.9870,1635.4
75.0040,1644.7
75.0210,1700.8
75.0380,1649.8
75.0550,1666.7
75.0720,1724.5
75.0890,1700.4
75.1060,1689.9
75.1230,1671.1
75.1400,1658.2
75.1570,1679.1
75.1740,1692.9
75.1910,1643.1
75.2080,1647.6
75.2250,1685.6
75.2420,1616.8
75.2590,1646.2
75.2760,1648.4
75.2930,1627.1
75.3100,1690.4
75.3270,1648.1
75.3440,1636.1
75.3610,1668.6
75.3780,1647.4
75.3950,1651.8
75.4120,1632.3
75.4290,1636.0
75.4460,1620.4
75.4630,1625.8
75.4800,1621.3
75.4970,1612.1
75.5140,1646.6
75.5310,1671.0
75.5480,1653.9
75.5650,1638.9
75.5820,1669.9
75.5990,1666.2
75.6160,1640.0
75.6330,1671.1
75.6500,1654.5
75.6670,1631.0
75.6840,1632.1
75.7010,1648.4
75.7180,1636.8
75.7350,1620.6
75.7520,1678.5
75.7690,1670.9
75.7860,1668.2
75.8030,1652.3
75.8200,1611.2
75.8370,1643.6
75.8540,1607.9
75.8710,1638.4
75.8880,1645.8
75.9050,1658.8
75.9220,1655.2
75.9390,1660.9
75.9560,1703.4
75.9730,1644.4
75.9900,1621.9
76.0070,1664.6
76.0240,1598.6
76.0410,1656.6
76.0580,1659.6
76.0750,1790.8
76.0920,1686.4
76.1090,1611.6
76.1260,1607.8
76.1430,1639.6
76.1600,1681.2
76.1770,1667.1
76.1940,1652.8
76.2110,1662.4
76.2280,1623.1
76.2450,1667.4
76.2620,1596.6
76.2790,1638.8
76.2960,1636.3
76.3130,1639.5
76.3300,1617.6
76.3470,1644.2
76.3640,1646.1
76.3810,1633.0
76.3980,1646.8
76.4150,1609.7
76.4320,1573.9
76.4490,1591.1
76.4660,1642.8
76.4830,1667.7
76.5000,1613.3
76.5170,1587.0
76.5340,1601.8
76.5510,1585.1
76.5680,1619.1
76.5850,1633.8
76.6020,1598.3
76.6190,1604.3
76.6360,1627.4
76.6530,1663.9
76.6700,1643.4
76.6870,1586.8
76.7040,1600.9
76.7210,1617.4
76.7380,1654.1
76.7550,1638.8
76.7720,1621.0
76.7890,1636.0
76.8060,1620.4
76.8230,1625.6
76.8400,1618.2
76.8570,1605.2
76.8740,1612.9
76.8910,1672.7
76.9080,1634.9
76.9250,1616.7
76.9420,1594.7
76.9590,1574.8
76.9760,1588.8
76.9930,1604.9
77.0100,1649.1
77.0270,1606.4
77.0440,1657.6
77.0610,1622.5
77.0780,1662.5
77.0950,1667.2
77.1120,1622.5
77.1290,1612.3
77.1460,1586.4
77.1630,1607.4
77.1800,1598.6
77.1970,1612.0
77.2140,1659.3
77.2310,1645.4
77.2480,1606.9
77.2650,1652.9
77.2820,1633.4
77.2990,1592.7
77.3160,1620.8
77.3330,1634.5
77.3500,1654.7
77.3670,1587.9
77.3840,1618.1
77.4010,1605.9
77.4180,1653.5
77.4350,1658.9
77.4520,1624.5
77.4690,1600.9
77.4860,1601.9
77.5030,1633.3
77.5200,1636.2
77.5370,1607.5
77.5540,1616.1
77.5710,1636.0
77.5880,1667.1
77.6050,1651.6
77.6220,1644.7
77.6390,1641.5
77.6560,1665.0
77.6730,1647.0
77.6900,1616.2
77.7070,1633.9
77.7240,1599.1
77.7410,1585.7
77.7580,1601.3
77.7750,1669.3
77.7920,1656.9
77.8090,1637.9
77.8260,1622.9
77.8430,1649.2
77.8600,1589.4
77.8770,1594.5
77.8940,1572.9
77.9110,1620.8
77.9280,1635.5
77.9450,1658.5
77.9620,1634.1
77.9790,1636.8
77.9960,1663.9
78.0130,1645.5
78.0300,1621.8
78.0470,1634.8
78.0640,1629.3
78.0810,1601.5
78.0980,1591.9
78.1150,1576.0
78.1320,1591.9
78.1490,1596.4
78.1660,1678.9
78.1830,1629.3
78.2000,1632.7
78.2170,1612.7
78.2340,1625.9
78.2510,1653.4
78.2680,1610.5
78.2850,1588.2
78.3020,1607.8
78.3190,1619.8
78.3360,1616.8
78.3530,1627.4
78.3700,1586.6
78.3870,1613.6
78.4040,1641.4
78.4210,1661.2
78.4380,1630.5
78.4550,1606.7
78.4720,1617.0
78.4890,1600.6
78.5060,1594.7
78.5230,1605.4
78.5400,1595.8
78.5570,1611.6
78.5740,1652.1
78.5910,1637.9
78.6080,1637.7
78.6250,1647.2
78.6420,1619.3
78.6590,1623.1
78.6760,1608.6
78.6930,1620.2
78.7100,1639.0
78.7270,1624.5
78.7440,1648.2
78.7610,1649.1
78.7780,1603.1
78.7950,1618.6
78.8120,1597.2
78.8290,1599.3
78.8460,1573.6
78.8630,1602.9
78.8800,1664.5
78.8970,1654.1
78.9140,1624.3
78.9310,1639.6
78.9480,1558.7
78.9650,1651.2
78.9820,1668.6
78.9990,1627.8
79.0160,1595.1
79.0330,1643.0
79.0500,1613.1
79.0670,1646.6
79.0840,1641.8
79.1010,1646.3
79.1180,1526.5
79.1350,1586.8
79.1520,1645.9
79.1690,1631.2
79.1860,1666.4
79.2030,1654.8
79.2200,1621.9
79.2370,1650.8
79.2540,1618.8
79.2710,1664.4
79.2880,1684.2
79.3050,1651.8
79.3220,1602.2
79.3390,1634.9
79.3560,1602.5
79.3730,1610.1
79.3900,1613.8
79.4070,1643.8
79.4240,1672.4
79.4410,1676.2
79.4580,1647.6
79.4750,1640.6
79.4920,1633.0
79.5090,1601.5
79.5260,1608.8
79.5430,1604.6
79.5600,1600.5
79.5770,1624.5
79.5940,1617.6
79.6110,1627.1
79.6280,1628.2
79.6450,1632.6
79.6620,1658.6
79.6790,1655.0
79.6960,1684.5
79.7130,1644.1
79.7300,1645.4
79.7470,1635.6
79.7640,1645.2
79.7810,1634.1
79.7980,1648.9
79.8150,1618.0
79.8320,1650.5
79.8490,1657.5
79.8660,1632.8
79.8830,1627.5
79.9000,1604.1
79.9170,1620.1
79.9340,1589.4
79.9510,1575.9
79.9680,1529.4
