[Measurement conditions]
Sample identification,
Comment - 1,"Configuration=Flat Sample Stage, Owner=User-1, Creation date=3/25/2015 2:10:01 PM"
Comment - 2,"Goniometer=PW3050/60 (Theta/Theta); Minimum step size 2Theta:0.001; Minimum step size Omega:0.001"
Comment - 3,"Sample stage=PW3071/xx Bracket"
Comment - 4,"Diffractometer system=XPERT-PRO"
Comment - 5,"Measurement program=C:\PANalytical\Data Collector\Programs\Flat sample Scan.xrdmp, Identifier={A9F6D0C0-202E-4C59-A4F1-A5BA86123012}"
Comment - 6,""
Anode material,Cu
K-Alpha1 wavelength,1.5405980
K-Alpha2 wavelength,1.5444260
Ratio K-Alpha2/K-Alpha1,0.000
Divergence slit,Fixed,0.500
Receiving slit,0.10
Monochromator used,NO
Generator voltage, 40
Tube current, 30
File date and time,27/Feb/2020 18:08
Unit cell,
h k l, 0 0 0
Temperature [K],298
Scan axis,Gonio
Scan range,19.9995,79.9925
Scan step size,0.0170000
No. of points, 3529
Scan type,CONTINUOUS
Time per step,34.925
[Scan points]
Angle,Intensity
20.0090,654.2
20.0260,704.9
20.0430,687.5
20.0600,693.5
20.0770,669.9
20.0940,668.6
20.1110,679.4
20.1280,684.7
20.1450,679.0
20.1620,664.1
20.1790,679.3
20.1960,652.2
20.2130,654.9
20.2300,641.3
20.2470,692.9
20.2640,675.4
20.2810,666.2
20.2980,685.1
20.3150,670.4
20.3320,676.0
20.3490,674.2
20.3660,646.6
20.3830,674.0
20.4000,690.5
20.4170,697.2
20.4340,685.6
20.4510,695.6
20.4680,686.8
20.4850,650.4
20.5020,642.0
20.5190,658.4
20.5360,664.4
20.5530,669.6
20.5700,664.0
20.5870,663.5
20.6040,657.5
20.6210,681.5
20.6380,690.5
20.6550,696.4
20.6720,671.4
20.6890,675.1
20.7060,647.9
20.7230,694.6
20.7400,687.2
20.7570,659.2
20.7740,678.1
20.7910,664.1
20.8080,667.3
20.8250,688.3
20.8420,692.6
20.8590,685.9
20.8760,670.1
20.8930,702.2
20.9100,679.2
20.9270,759.4
20.9440,700.2
20.9610,687.1
20.9780,672.8
20.9950,684.2
21.0120,675.7
21.0290,747.2
21.0460,686.4
21.0630,675.5
21.0800,667.1
21.0970,668.7
21.1140,679.9
21.1310,676.2
21.1480,635.2
21.1650,685.2
21.1820,672.1
21.1990,658.9
21.2160,685.9
21.2330,637.6
21.2500,664.6
21.2670,690.8
21.2840,686.6
21.3010,665.9
21.3180,695.9
21.3350,694.4
21.3520,684.1
21.3690,685.9
21.3860,683.4
21.4030,659.0
21.4200,675.5
21.4370,682.6
21.4540,676.0
21.4710,675.2
21.4880,663.5
21.5050,671.0
21.5220,654.4
21.5390,649.9
21.5560,729.6
21.5730,736.2
21.5900,675.7
21.6070,687.1
21.6240,687.4
21.6410,678.4
21.6580,701.1
21.6750,701.4
21.6920,692.3
21.7090,697.4
21.7260,701.8
21.7430,682.6
21.7600,677.3
21.7770,696.5
21.7940,672.4
21.8110,662.1
21.8280,664.1
21.8450,665.6
21.8620,672.5
21.8790,635.9
21.8960,682.6
21.9130,691.4
21.9300,680.2
21.9470,669.1
21.9640,684.9
21.9810,671.9
21.9980,730.5
22.0150,674.6
22.0320,667.6
22.0490,647.7
22.0660,690.5
22.0830,683.6
22.1000,691.8
22.1170,657.8
22.1340,672.2
22.1510,689.5
22.1680,666.9
22.1850,696.8
22.2020,679.1
22.2190,696.6
22.2360,706.4
22.2530,693.8
22.2700,657.2
22.2870,647.9
22.3040,694.1
22.3210,692.6
22.3380,653.9
22.3550,653.1
22.3720,655.6
22.3890,681.8
22.4060,677.8
22.4230,675.0
22.4400,693.4
22.4570,728.9
22.4740,694.4
22.4910,667.5
22.5080,661.1
22.5250,680.4
22.5420,701.5
22.5590,678.9
22.5760,693.9
22.5930,706.2
22.6100,677.0
22.6270,677.1
22.6440,679.0
22.6610,679.8
22.6780,693.3
22.6950,698.3
22.7120,703.1
22.7290,705.4
22.7460,724.7
22.7630,685.1
22.7800,641.2
22.7970,694.1
22.8140,709.4
22.8310,666.8
22.8480,663.8
22.8650,662.1
22.8820,693.5
22.8990,656.9
22.9160,700.8
22.9330,668.2
22.9500,701.0
22.9670,668.6
22.9840,664.4
23.0010,701.1
23.0180,686.8
23.0350,698.1
23.0520,669.6
23.0690,694.5
23.0860,672.5
23.1030,697.1
23.1200,713.9
23.1370,695.6
23.1540,676.1
23.1710,711.6
23.1880,751.4
23.2050,708.9
23.2220,707.5
23.2390,697.8
23.2560,680.4
23.2730,719.2
23.2900,721.4
23.3070,712.5
23.3240,720.1
23.3410,703.7
23.3580,682.8
23.3750,680.8
23.3920,693.8
23.4090,704.9
23.4260,672.0
23.4430,688.8
23.4600,700.5
23.4770,691.1
23.4940,677.8
23.5110,691.0
23.5280,690.9
23.5450,689.2
23.5620,675.9
23.5790,674.5
23.5960,682.9
23.6130,679.7
23.6300,660.3
23.6470,681.9
23.6640,694.2
23.6810,666.3
23.6980,687.6
23.7150,697.9
23.7320,697.1
23.7490,695.2
23.7660,637.5
23.7830,694.7
23.8000,707.2
23.8170,725.0
23.8340,694.8
23.8510,719.9
23.8680,671.3
23.8850,692.9
23.9020,706.0
23.9190,691.2
23.9360,710.1
23.9530,697.1
23.9700,712.2
23.9870,685.2
24.0040,705.2
24.0210,722.0
24.0380,690.4
24.0550,697.1
24.0720,712.3
24.0890,685.5
24.1060,693.9
24.1230,709.5
24.1400,716.2
24.1570,687.5
24.1740,694.8
24.1910,690.9
24.2080,689.9
24.2250,687.9
24.2420,671.2
24.2590,689.2
24.2760,678.1
24.2930,695.2
24.3100,698.3
24.3270,704.8
24.3440,730.6
24.3610,693.6
24.3780,703.9
24.3950,701.9
24.4120,702.1
24.4290,735.8
24.4460,729.3
24.4630,687.1
24.4800,704.2
24.4970,706.6
24.5140,684.9
24.5310,701.6
24.5480,727.6
24.5650,718.8
24.5820,669.2
24.5990,706.6
24.6160,729.8
24.6330,694.7
24.6500,707.1
24.6670,722.4
24.6840,696.8
24.7010,709.6
24.7180,720.0
24.7350,721.2
24.7520,737.8
24.7690,701.9
24.7860,687.5
24.8030,727.7
24.8200,737.5
24.8370,713.4
24.8540,703.5
24.8710,711.4
24.8880,717.6
24.9050,725.2
24.9220,681.1
24.9390,698.8
24.9560,709.4
24.9730,684.4
24.9900,706.2
25.0070,695.2
25.0240,731.3
25.0410,735.6
25.0580,729.2
25.0750,715.2
25.0920,703.1
25.1090,718.3
25.1260,677.1
25.1430,710.0
25.1600,694.4
25.1770,702.4
25.1940,723.5
25.2110,715.4
25.2280,704.3
25.2450,693.3
25.2620,697.2
25.2790,685.0
25.2960,686.1
25.3130,705.3
25.3300,725.4
25.3470,715.6
25.3640,725.6
25.3810,734.3
25.3980,723.7
25.4150,734.2
25.4320,721.6
25.4490,717.0
25.4660,733.1
25.4830,733.8
25.5000,714.1
25.5170,701.8
25.5340,730.6
25.5510,738.3
25.5680,710.5
25.5850,702.5
25.6020,710.3
25.6190,714.7
25.6360,709.9
25.6530,708.3
25.6700,712.1
25.6870,698.1
25.7040,715.1
25.7210,719.5
25.7380,755.5
25.7550,702.6
25.7720,761.3
25.7890,760.2
25.8060,671.1
25.8230,735.8
25.8400,718.4
25.8570,738.4
25.8740,714.9
25.8910,743.5
25.9080,721.5
25.9250,761.8
25.9420,772.1
25.9590,724.6
25.9760,717.9
25.9930,716.7
26.0100,727.1
26.0270,712.0
26.0440,713.2
26.0610,732.8
26.0780,743.4
26.0950,719.7
26.1120,761.2
26.1290,733.3
26.1460,737.8
26.1630,735.1
26.1800,735.5
26.1970,726.1
26.2140,712.1
26.2310,713.2
26.2480,703.5
26.2650,741.9
26.2820,724.4
26.2990,713.4
26.3160,703.6
26.3330,714.5
26.3500,721.8
26.3670,719.6
26.3840,745.8
26.4010,741.9
26.4180,724.7
26.4350,720.2
26.4520,723.6
26.4690,718.0
26.4860,718.9
26.5030,733.3
26.5200,722.6
26.5370,733.7
26.5540,743.5
26.5710,719.2
26.5880,706.6
26.6050,701.6
26.6220,727.1
26.6390,712.8
26.6560,710.8
26.6730,739.5
26.6900,733.7
26.7070,761.2
26.7240,763.1
26.7410,731.2
26.7580,703.5
26.7750,712.4
26.7920,735.9
26.8090,765.6
26.8260,744.4
26.8430,749.9
26.8600,748.1
26.8770,747.4
26.8940,722.4
26.9110,727.8
26.9280,723.5
26.9450,716.8
26.9620,727.6
26.9790,706.5
26.9960,716.9
27.0130,760.6
27.0300,724.5
27.0470,763.1
27.0640,733.4
27.0810,740.8
27.0980,769.1
27.1150,769.9
27.1320,750.4
27.1490,726.8
27.1660,754.9
27.1830,737.7
27.2000,733.2
27.2170,736.5
27.2340,745.5
27.2510,753.5
27.2680,761.9
27.2850,760.5
27.3020,766.2
27.3190,736.7
27.3360,736.1
27.3530,801.6
27.3700,793.9
27.3870,776.8
27.4040,770.2
27.4210,725.6
27.4380,734.9
27.4550,734.0
27.4720,750.1
27.4890,750.3
27.5060,724.4
27.5230,746.7
27.5400,756.6
27.5570,732.7
27.5740,712.9
27.5910,726.9
27.6080,728.6
27.6250,769.7
27.6420,764.6
27.6590,760.0
27.6760,773.7
27.6930,737.2
27.7100,738.0
27.7270,710.2
27.7440,777.1
27.7610,776.9
27.7780,742.0
27.7950,728.9
27.8120,774.2
27.8290,746.1
27.8460,762.4
27.8630,753.2
27.8800,757.1
27.8970,757.2
27.9140,745.6
27.9310,768.9
27.9480,735.6
27.9650,746.5
27.9820,768.8
27.9990,750.6
28.0160,759.2
28.0330,747.4
28.0500,752.9
28.0670,751.6
28.0840,746.8
28.1010,758.1
28.1180,744.9
28.1350,758.2
28.1520,732.1
28.1690,765.5
28.1860,772.4
28.2030,746.5
28.2200,755.3
28.2370,758.5
28.2540,734.2
28.2710,738.8
28.2880,766.1
28.3050,753.9
28.3220,783.9
28.3390,782.1
28.3560,767.7
28.3730,762.2
28.3900,749.6
28.4070,758.1
28.4240,744.1
28.4410,763.1
28.4580,778.4
28.4750,752.6
28.4920,747.9
28.5090,761.2
28.5260,749.1
28.5430,766.8
28.5600,763.5
28.5770,756.8
28.5940,767.5
28.6110,728.2
28.6280,748.4
28.6450,772.8
28.6620,800.6
28.6790,792.5
28.6960,766.5
28.7130,730.1
28.7300,780.2
28.7470,796.8
28.7640,761.1
28.7810,763.2
28.7980,781.1
28.8150,766.9
28.8320,780.9
28.8490,763.1
28.8660,747.1
28.8830,730.2
28.9000,687.4
28.9170,729.5
28.9340,783.5
28.9510,760.2
28.9680,762.1
28.9850,748.6
29.0020,758.5
29.0190,767.5
29.0360,775.4
29.0530,767.7
29.0700,793.6
29.0870,772.2
29.1040,776.6
29.1210,786.4
29.1380,793.1
29.1550,809.9
29.1720,791.3
29.1890,779.4
29.2060,768.5
29.2230,761.6
29.2400,773.1
29.2570,791.5
29.2740,815.5
29.2910,806.3
29.3080,778.7
29.3250,774.5
29.3420,784.6
29.3590,810.1
29.3760,792.4
29.3930,751.1
29.4100,770.4
29.4270,793.2
29.4440,798.1
29.4610,813.8
29.4780,777.8
29.4950,774.5
29.5120,782.4
29.5290,771.6
29.5460,764.9
29.5630,748.4
29.5800,754.0
29.5970,753.3
29.6140,744.7
29.6310,788.8
29.6480,798.1
29.6650,750.6
29.6820,746.3
29.6990,766.4
29.7160,757.8
29.7330,769.9
29.7500,752.5
29.7670,760.2
29.7840,764.8
29.8010,794.9
29.8180,804.4
29.8350,730.2
29.8520,735.1
29.8690,754.6
29.8860,794.5
29.9030,756.7
29.9200,797.9
29.9370,767.2
29.9540,802.6
29.9710,810.1
29.9880,764.0
30.0050,779.5
30.0220,770.5
30.0390,746.9
30.0560,762.2
30.0730,764.8
30.0900,760.8
30.1070,758.6
30.1240,770.5
30.1410,794.5
30.1580,784.9
30.1750,767.2
30.1920,754.8
30.2090,769.8
30.2260,798.2
30.2430,785.2
30.2600,774.1
30.2770,790.6
30.2940,783.1
30.3110,770.0
30.3280,785.4
30.3450,774.3
30.3620,763.9
30.3790,777.5
30.3960,767.3
30.4130,740.8
30.4300,756.0
30.4470,786.2
30.4640,758.4
30.4810,781.1
30.4980,800.0
30.5150,815.1
30.5320,799.6
30.5490,778.2
30.5660,780.7
30.5830,775.6
30.6000,771.6
30.6170,796.4
30.6340,787.9
30.6510,802.7
30.6680,812.5
30.6850,792.2
30.7020,853.9
30.7190,772.8
30.7360,769.6
30.7530,777.7
30.7700,759.6
30.7870,800.4
30.8040,774.5
30.8210,783.6
30.8380,808.2
30.8550,777.4
30.8720,754.0
30.8890,799.2
30.9060,756.8
30.9230,786.4
30.9400,811.0
30.9570,838.1
30.9740,760.3
30.9910,765.4
31.0080,769.4
31.0250,745.5
31.0420,786.6
31.0590,798.7
31.0760,838.8
31.0930,783.8
31.1100,735.1
31.1270,769.8
31.1440,799.4
31.1610,804.6
31.1780,782.5
31.1950,790.8
31.2120,802.6
31.2290,795.9
31.2460,793.4
31.2630,782.3
31.2800,771.4
31.2970,778.2
31.3140,782.1
31.3310,802.4
31.3480,838.2
31.3650,793.2
31.3820,780.3
31.3990,784.3
31.4160,772.4
31.4330,762.1
31.4500,762.6
31.4670,757.9
31.4840,772.6
31.5010,765.6
31.5180,760.3
31.5350,781.9
31.5520,796.2
31.5690,800.1
31.5860,815.5
31.6030,789.5
31.6200,764.2
31.6370,752.2
31.6540,775.3
31.6710,826.1
31.6880,794.8
31.7050,774.1
31.7220,760.0
31.7390,777.4
31.7560,799.4
31.7730,805.1
31.7900,792.0
31.8070,806.2
31.8240,775.9
31.8410,761.8
31.8580,807.6
31.8750,816.2
31.8920,786.3
31.9090,776.6
31.9260,801.8
31.9430,796.6
31.9600,775.4
31.9770,782.1
31.9940,781.5
32.0110,756.9
32.0280,758.0
32.0450,805.5
32.0620,795.2
32.0790,751.2
32.0960,757.4
32.1130,811.6
32.1300,820.4
32.1470,809.9
32.1640,791.5
32.1810,768.0
32.1980,769.9
32.2150,801.6
32.2320,811.3
32.2490,799.4
32.2660,788.0
32.2830,771.5
32.3000,765.4
32.3170,789.7
32.3340,814.9
32.3510,781.9
32.3680,795.8
32.3850,790.8
32.4020,757.2
32.4190,794.3
32.4360,814.0
32.4530,797.6
32.4700,793.4
32.4870,814.9
32.5040,796.2
32.5210,786.0
32.5380,817.6
32.5550,810.9
32.5720,791.4
32.5890,768.2
32.6060,802.0
32.6230,773.2
32.6400,822.2
32.6570,778.0
32.6740,779.9
32.6910,811.1
32.7080,813.2
32.7250,830.2
32.7420,801.3
32.7590,805.2
32.7760,793.4
32.7930,801.0
32.8100,832.3
32.8270,819.8
32.8440,799.9
32.8610,785.7
32.8780,843.0
32.8950,810.5
32.9120,803.5
32.9290,812.5
32.9460,820.1
32.9630,803.5
32.9800,779.1
32.9970,781.8
33.0140,795.8
33.0310,822.7
33.0480,786.7
33.0650,800.4
33.0820,837.9
33.0990,819.4
33.1160,809.4
33.1330,800.5
33.1500,825.3
33.1670,829.7
33.1840,824.6
33.2010,818.9
33.2180,817.7
33.2350,813.1
33.2520,813.3
33.2690,802.1
33.2860,804.3
33.3030,809.1
33.3200,811.3
33.3370,815.6
33.3540,810.6
33.3710,820.0
33.3880,820.7
33.4050,830.4
33.4220,803.2
33.4390,791.1
33.4560,807.2
33.4730,794.1
33.4900,795.9
33.5070,796.1
33.5240,814.6
33.5410,839.6
33.5580,833.1
33.5750,833.7
33.5920,812.7
33.6090,806.3
33.6260,778.5
33.6430,773.4
33.6600,827.4
33.6770,817.7
33.6940,813.3
33.7110,816.4
33.7280,792.1
33.7450,823.7
33.7620,802.1
33.7790,787.8
33.7960,801.3
33.8130,823.8
33.8300,851.4
33.8470,838.7
33.8640,801.2
33.8810,789.8
33.8980,819.0
33.9150,819.5
33.9320,827.5
33.9490,818.5
33.9660,809.2
33.9830,796.8
34.0000,793.1
34.0170,793.0
34.0340,779.4
34.0510,817.0
34.0680,800.6
34.0850,795.8
34.1020,810.2
34.1190,844.3
34.1360,818.4
34.1530,840.7
34.1700,833.6
34.1870,797.9
34.2040,843.9
34.2210,824.5
34.2380,785.6
34.2550,796.1
34.2720,811.4
34.2890,786.4
34.3060,793.2
34.3230,796.1
34.3400,796.4
34.3570,786.2
34.3740,775.3
34.3910,797.8
34.4080,826.3
34.4250,830.4
34.4420,820.1
34.4590,819.1
34.4760,789.6
34.4930,800.2
34.5100,824.1
34.5270,887.0
34.5440,837.7
34.5610,816.1
34.5780,802.4
34.5950,806.8
34.6120,786.2
34.6290,775.1
34.6460,794.6
34.6630,819.8
34.6800,799.7
34.6970,780.8
34.7140,808.3
34.7310,796.6
34.7480,792.8
34.7650,826.2
34.7820,889.5
34.7990,831.6
34.8160,809.8
34.8330,821.6
34.8500,797.5
34.8670,776.8
34.8840,820.6
34.9010,813.4
34.9180,805.4
34.9350,826.3
34.9520,798.8
34.9690,795.4
34.9860,801.3
35.0030,790.7
35.0200,802.6
35.0370,813.8
35.0540,827.1
35.0710,827.9
35.0880,811.5
35.1050,835.5
35.1220,841.1
35.1390,810.9
35.1560,810.1
35.1730,812.9
35.1900,826.6
35.2070,821.2
35.2240,825.4
35.2410,831.1
35.2580,831.6
35.2750,810.3
35.2920,814.9
35.3090,813.5
35.3260,805.7
35.3430,803.2
35.3600,840.3
35.3770,860.4
35.3940,851.6
35.4110,859.4
35.4280,833.5
35.4450,826.5
35.4620,835.8
35.4790,848.9
35.4960,846.5
35.5130,836.9
35.5300,820.6
35.5470,832.8
35.5640,856.8
35.5810,791.2
35.5980,811.1
35.6150,829.1
35.6320,846.9
35.6490,861.5
35.6660,866.2
35.6830,821.9
35.7000,821.4
35.7170,842.1
35.7340,828.2
35.7510,845.5
35.7680,823.3
35.7850,857.1
35.8020,811.1
35.8190,815.3
35.8360,865.2
35.8530,820.4
35.8700,826.3
35.8870,817.1
35.9040,848.2
35.9210,818.4
35.9380,792.9
35.9550,808.7
35.9720,835.7
35.9890,832.0
36.0060,847.0
36.0230,830.9
36.0400,829.6
36.0570,823.5
36.0740,831.5
36.0910,822.9
36.1080,820.9
36.1250,819.4
36.1420,808.9
36.1590,808.6
36.1760,833.9
36.1930,831.4
36.2100,822.6
36.2270,831.9
36.2440,831.5
36.2610,839.5
36.2780,830.6
36.2950,824.5
36.3120,831.4
36.3290,822.6
36.3460,832.2
36.3630,817.9
36.3800,800.9
36.3970,816.1
36.4140,835.4
36.4310,856.7
36.4480,850.8
36.4650,830.5
36.4820,807.6
36.4990,820.6
36.5160,861.1
36.5330,846.8
36.5500,859.1
36.5670,859.9
36.5840,858.8
36.6010,854.0
36.6180,824.7
36.6350,867.4
36.6520,856.3
36.6690,843.6
36.6860,820.2
36.7030,809.4
36.7200,832.9
36.7370,849.4
36.7540,868.5
36.7710,826.8
36.7880,809.4
36.8050,844.4
36.8220,801.9
36.8390,804.6
36.8560,862.3
36.8730,867.1
36.8900,866.0
36.9070,834.6
36.9240,843.0
36.9410,827.9
36.9580,841.1
36.9750,826.9
36.9920,841.8
37.0090,839.1
37.0260,842.1
37.0430,874.8
37.0600,855.4
37.0770,861.8
37.0940,873.2
37.1110,860.1
37.1280,843.5
37.1450,821.0
37.1620,836.1
37.1790,821.9
37.1960,822.9
37.2130,852.3
37.2300,823.5
37.2470,801.2
37.2640,819.9
37.2810,819.4
37.2980,842.7
37.3150,868.9
37.3320,849.8
37.3490,831.6
37.3660,841.3
37.3830,846.0
37.4000,846.1
37.4170,846.9
37.4340,846.1
37.4510,846.9
37.4680,844.9
37.4850,843.1
37.5020,829.4
37.5190,835.3
37.5360,841.3
37.5530,862.6
37.5700,869.8
37.5870,818.8
37.6040,833.9
37.6210,863.1
37.6380,832.2
37.6550,820.2
37.6720,839.6
37.6890,832.9
37.7060,817.4
37.7230,853.2
37.7400,828.3
37.7570,879.9
37.7740,859.8
37.7910,823.9
37.8080,822.9
37.8250,838.4
37.8420,842.4
37.8590,816.4
37.8760,822.6
37.8930,817.6
37.9100,829.0
37.9270,861.4
37.9440,867.4
37.9610,856.9
37.9780,854.2
37.9950,841.6
38.0120,850.0
38.0290,819.2
38.0460,837.9
38.0630,838.0
38.0800,853.7
38.0970,847.8
38.1140,829.1
38.1310,846.2
38.1480,833.2
38.1650,837.5
38.1820,845.9
38.1990,860.6
38.2160,854.2
38.2330,842.8
38.2500,858.1
38.2670,891.3
38.2840,877.2
38.3010,833.5
38.3180,855.8
38.3350,836.6
38.3520,830.9
38.3690,847.5
38.3860,871.9
38.4030,868.7
38.4200,846.6
38.4370,823.8
38.4540,820.8
38.4710,834.9
38.4880,865.0
38.5050,848.9
38.5220,849.8
38.5390,878.2
38.5560,882.9
38.5730,894.8
38.5900,843.4
38.6070,834.2
38.6240,839.7
38.6410,868.7
38.6580,894.9
38.6750,881.5
38.6920,946.6
38.7090,828.8
38.7260,826.3
38.7430,845.4
38.7600,820.2
38.7770,840.9
38.7940,854.0
38.8110,841.2
38.8280,890.9
38.8450,856.3
38.8620,831.4
38.8790,869.6
38.8960,863.6
38.9130,873.5
38.9300,862.7
38.9470,828.4
38.9640,864.1
38.9810,833.3
38.9980,838.0
39.0150,837.4
39.0320,828.4
39.0490,836.0
39.0660,853.2
39.0830,872.4
39.1000,875.9
39.1170,841.9
39.1340,825.6
39.1510,834.2
39.1680,823.2
39.1850,842.7
39.2020,854.4
39.2190,862.2
39.2360,880.4
39.2530,871.1
39.2700,873.5
39.2870,880.7
39.3040,860.8
39.3210,873.4
39.3380,861.4
39.3550,836.1
39.3720,838.8
39.3890,852.0
39.4060,851.6
39.4230,845.5
39.4400,853.9
39.4570,866.2
39.4740,837.4
39.4910,845.8
39.5080,888.6
39.5250,865.3
39.5420,839.2
39.5590,857.3
39.5760,832.0
39.5930,862.2
39.6100,835.0
39.6270,851.0
39.6440,853.2
39.6610,885.4
39.6780,845.8
39.6950,876.6
39.7120,914.4
39.7290,856.0
39.7460,856.1
39.7630,856.3
39.7800,833.2
39.7970,896.7
39.8140,844.2
39.8310,848.3
39.8480,870.0
39.8650,887.6
39.8820,911.4
39.8990,866.6
39.9160,831.6
39.9330,889.5
39.9500,879.5
39.9670,857.4
39.9840,879.4
40.0010,885.8
40.0180,880.6
40.0350,842.8
40.0520,841.7
40.0690,868.6
40.0860,863.3
40.1030,866.9
40.1200,851.1
40.1370,869.6
40.1540,877.2
40.1710,848.6
40.1880,842.9
40.2050,842.3
40.2220,847.1
40.2390,850.9
40.2560,881.6
40.2730,890.8
40.2900,870.8
40.3070,867.6
40.3240,861.4
40.3410,869.2
40.3580,888.3
40.3750,890.7
40.3920,855.5
40.4090,880.2
40.4260,898.9
40.4430,880.8
40.4600,877.7
40.4770,888.6
40.4940,881.2
40.5110,851.8
40.5280,847.5
40.5450,824.6
40.5620,850.3
40.5790,858.1
40.5960,906.2
40.6130,876.6
40.6300,870.9
40.6470,886.0
40.6640,886.9
40.6810,896.6
40.6980,830.1
40.7150,894.2
40.7320,863.6
40.7490,842.5
40.7660,867.6
40.7830,893.5
40.8000,886.2
40.8170,889.2
40.8340,876.6
40.8510,873.0
40.8680,902.2
40.8850,856.6
40.9020,850.9
40.9190,863.1
40.9360,836.4
40.9530,908.4
40.9700,944.3
40.9870,916.2
41.0040,902.7
41.0210,896.7
41.0380,875.1
41.0550,861.6
41.0720,872.4
41.0890,893.8
41.1060,890.3
41.1230,879.4
41.1400,886.8
41.1570,897.8
41.1740,877.4
41.1910,866.0
41.2080,849.8
41.2250,846.8
41.2420,859.4
41.2590,864.6
41.2760,861.1
41.2930,893.9
41.3100,889.9
41.3270,855.9
41.3440,856.1
41.3610,875.9
41.3780,904.7
41.3950,885.1
41.4120,902.1
41.4290,887.8
41.4460,883.6
41.4630,877.2
41.4800,880.8
41.4970,875.6
41.5140,853.7
41.5310,848.8
41.5480,846.2
41.5650,869.6
41.5820,925.8
41.5990,902.3
41.6160,845.6
41.6330,888.3
41.6500,907.0
41.6670,875.2
41.6840,879.7
41.7010,903.4
41.7180,852.4
41.7350,951.7
41.7520,896.8
41.7690,863.0
41.7860,893.1
41.8030,865.2
41.8200,916.2
41.8370,919.8
41.8540,931.6
41.8710,911.9
41.8880,939.4
41.9050,898.0
41.9220,897.9
41.9390,896.6
41.9560,905.6
41.9730,883.6
41.9900,896.1
42.0070,931.2
42.0240,947.7
42.0410,909.6
42.0580,888.9
42.0750,920.1
42.0920,936.1
42.1090,919.9
42.1260,902.5
42.1430,893.8
42.1600,890.8
42.1770,887.8
42.1940,886.1
42.2110,903.2
42.2280,908.7
42.2450,935.7
42.2620,930.8
42.2790,926.6
42.2960,903.0
42.3130,886.8
42.3300,885.2
42.3470,919.6
42.3640,913.5
42.3810,919.0
42.3980,872.6
42.4150,900.7
42.4320,928.4
42.4490,933.3
42.4660,906.5
42.4830,915.6
42.5000,923.9
42.5170,909.5
42.5340,949.6
42.5510,956.7
42.5680,918.5
42.5850,896.2
42.6020,914.9
42.6190,914.5
42.6360,934.8
42.6530,886.0
42.6700,917.2
42.6870,904.9
42.7040,902.2
42.7210,894.9
42.7380,970.5
42.7550,930.6
42.7720,926.1
42.7890,942.8
42.8060,937.0
42.8230,906.3
42.8400,929.2
42.8570,961.2
42.8740,915.4
42.8910,908.0
42.9080,941.5
42.9250,965.1
42.9420,956.1
42.9590,1050.9
42.9760,1006.1
42.9930,1089.9
43.0100,1138.5
43.0270,1166.0
43.0440,1213.6
43.0610,1207.8
43.0780,1224.7
43.0950,1285.9
43.1120,1322.6
43.1290,1439.4
43.1460,1624.2
43.1630,1965.2
43.1800,2555.1
43.1970,3616.1
43.2140,5690.1
43.2310,9703.1
43.2480,14361.8
43.2650,16033.6
43.2820,13436.4
43.2990,9674.4
43.3160,6605.3
43.3330,4431.5
43.3500,3071.9
43.3670,2393.6
43.3840,1770.8
43.4010,1376.6
43.4180,1275.7
43.4350,1291.8
43.4520,1113.2
43.4690,1110.9
43.4860,1030.1
43.5030,1051.2
43.5200,1115.0
43.5370,1047.8
43.5540,997.9
43.5710,1025.9
43.5880,979.6
43.6050,1018.1
43.6220,972.8
43.6390,1004.1
43.6560,1033.4
43.6730,959.0
43.6900,960.6
43.7070,989.9
43.7240,1032.3
43.7410,956.8
43.7580,953.0
43.7750,951.4
43.7920,928.3
43.8090,962.3
43.8260,919.5
43.8430,927.9
43.8600,941.8
43.8770,938.8
43.8940,932.7
43.9110,898.2
43.9280,934.6
43.9450,943.6
43.9620,938.0
43.9790,937.9
43.9960,937.6
44.0130,947.7
44.0300,959.6
44.0470,968.2
44.0640,953.5
44.0810,929.4
44.0980,919.2
44.1150,923.9
44.1320,939.5
44.1490,946.7
44.1660,941.0
44.1830,925.2
44.2000,929.2
44.2170,931.1
44.2340,916.6
44.2510,925.5
44.2680,903.5
44.2850,926.6
44.3020,920.6
44.3190,932.4
44.3360,952.1
44.3530,921.4
44.3700,912.7
44.3870,923.9
44.4040,923.5
44.4210,929.9
44.4380,897.2
44.4550,919.6
44.4720,957.9
44.4890,910.1
44.5060,928.9
44.5230,944.5
44.5400,966.5
44.5570,941.3
44.5740,913.4
44.5910,901.6
44.6080,866.9
44.6250,929.6
44.6420,929.3
44.6590,1007.7
44.6760,908.4
44.6930,928.5
44.7100,905.6
44.7270,930.6
44.7440,925.8
44.7610,953.7
44.7780,933.2
44.7950,934.4
44.8120,910.1
44.8290,942.9
44.8460,924.9
44.8630,924.1
44.8800,942.1
44.8970,958.7
44.9140,938.0
44.9310,937.9
44.9480,934.1
44.9650,903.1
44.9820,904.6
44.9990,915.3
45.0160,936.0
45.0330,933.5
45.0500,895.6
45.0670,922.9
45.0840,952.5
45.1010,944.4
45.1180,935.4
45.1350,940.9
45.1520,941.2
45.1690,960.8
45.1860,955.6
45.2030,934.4
45.2200,958.5
45.2370,981.6
45.2540,960.2
45.2710,963.8
45.2880,975.2
45.3050,959.5
45.3220,920.8
45.3390,933.2
45.3560,936.2
45.3730,938.5
45.3900,931.1
45.4070,933.2
45.4240,938.2
45.4410,956.4
45.4580,927.5
45.4750,889.4
45.4920,927.6
45.5090,937.1
45.5260,937.8
45.5430,935.5
45.5600,942.1
45.5770,913.7
45.5940,938.1
45.6110,891.1
45.6280,893.4
45.6450,916.9
45.6620,931.0
45.6790,931.9
45.6960,945.7
45.7130,922.7
45.7300,885.9
45.7470,888.1
45.7640,951.6
45.7810,929.4
45.7980,920.0
45.8150,937.4
45.8320,958.8
45.8490,954.8
45.8660,934.7
45.8830,932.3
45.9000,965.9
45.9170,916.1
45.9340,917.5
45.9510,923.8
45.9680,904.7
45.9850,917.9
46.0020,950.2
46.0190,983.5
46.0360,941.8
46.0530,924.2
46.0700,943.1
46.0870,927.9
46.1040,926.5
46.1210,918.4
46.1380,924.1
46.1550,910.1
46.1720,927.8
46.1890,925.3
46.2060,945.5
46.2230,938.8
46.2400,950.8
46.2570,947.8
46.2740,958.9
46.2910,938.9
46.3080,907.6
46.3250,934.5
46.3420,941.2
46.3590,913.9
46.3760,928.8
46.3930,925.2
46.4100,927.8
46.4270,924.5
46.4440,929.6
46.4610,878.8
46.4780,924.9
46.4950,953.3
46.5120,924.7
46.5290,906.2
46.5460,939.9
46.5630,907.6
46.5800,919.2
46.5970,938.2
46.6140,927.8
46.6310,953.6
46.6480,903.9
46.6650,963.7
46.6820,926.1
46.6990,914.7
46.7160,957.6
46.7330,949.1
46.7500,920.4
46.7670,939.2
46.7840,896.6
46.8010,938.6
46.8180,947.8
46.8350,945.2
46.8520,963.8
46.8690,943.1
46.8860,925.8
46.9030,894.2
46.9200,959.4
46.9370,933.2
46.9540,935.6
46.9710,929.6
46.9880,922.8
47.0050,919.0
47.0220,904.4
47.0390,927.5
47.0560,934.8
47.0730,930.6
47.0900,924.6
47.1070,919.2
47.1240,939.4
47.1410,959.8
47.1580,939.2
47.1750,910.8
47.1920,910.2
47.2090,946.3
47.2260,966.8
47.2430,960.9
47.2600,926.6
47.2770,921.4
47.2940,944.2
47.3110,945.9
47.3280,928.9
47.3450,927.4
47.3620,936.4
47.3790,986.7
47.3960,917.3
47.4130,908.2
47.4300,945.4
47.4470,967.5
47.4640,970.9
47.4810,908.0
47.4980,954.0
47.5150,924.0
47.5320,955.6
47.5490,946.5
47.5660,895.1
47.5830,959.1
47.6000,926.0
47.6170,896.2
47.6340,932.8
47.6510,945.2
47.6680,948.5
47.6850,954.8
47.7020,934.3
47.7190,924.0
47.7360,940.2
47.7530,944.2
47.7700,945.6
47.7870,923.0
47.8040,924.2
47.8210,941.9
47.8380,908.5
47.8550,917.6
47.8720,926.5
47.8890,918.8
47.9060,929.9
47.9230,897.4
47.9400,923.1
47.9570,971.9
47.9740,951.1
47.9910,904.4
48.0080,895.6
48.0250,906.5
48.0420,915.3
48.0590,936.8
48.0760,949.6
48.0930,943.2
48.1100,946.2
48.1270,949.8
48.1440,962.9
48.1610,959.8
48.1780,942.2
48.1950,960.8
48.2120,955.9
48.2290,938.2
48.2460,942.9
48.2630,955.2
48.2800,925.8
48.2970,924.6
48.3140,963.4
48.3310,921.3
48.3480,925.7
48.3650,920.8
48.3820,917.8
48.3990,929.9
48.4160,915.6
48.4330,955.6
48.4500,933.2
48.4670,923.1
48.4840,954.7
48.5010,932.4
48.5180,911.1
48.5350,975.5
48.5520,955.0
48.5690,1015.5
48.5860,959.5
48.6030,970.1
48.6200,1002.7
48.6370,995.9
48.6540,962.2
48.6710,968.8
48.6880,1011.2
48.7050,983.9
48.7220,997.6
48.7390,973.8
48.7560,954.5
48.7730,962.3
48.7900,967.2
48.8070,970.6
48.8240,966.3
48.8410,988.2
48.8580,1007.8
48.8750,1004.2
48.8920,1008.6
48.9090,1031.8
48.9260,980.7
48.9430,993.0
48.9600,1007.8
48.9770,989.2
48.9940,993.8
49.0110,1007.6
49.0280,1018.1
49.0450,1033.9
49.0620,1015.9
49.0790,998.5
49.0960,1007.6
49.1130,1017.1
49.1300,1001.9
49.1470,986.2
49.1640,1022.1
49.1810,1039.1
49.1980,1038.3
49.2150,1010.5
49.2320,1001.2
49.2490,988.8
49.2660,1001.5
49.2830,1006.5
49.3000,966.4
49.3170,972.9
49.3340,987.2
49.3510,972.8
49.3680,942.1
49.3850,1006.2
49.4020,993.8
49.4190,1006.2
49.4360,995.1
49.4530,1032.2
49.4700,1080.6
49.4870,1023.7
49.5040,989.6
49.5210,1030.2
49.5380,1000.2
49.5550,987.9
49.5720,986.7
49.5890,981.9
49.6060,984.1
49.6230,1049.4
49.6400,1036.8
49.6570,1003.1
49.6740,1019.6
49.6910,1014.8
49.7080,1026.5
49.7250,1019.3
49.7420,1023.4
49.7590,1013.7
49.7760,1010.9
49.7930,1040.4
49.8100,1030.7
49.8270,1040.4
49.8440,1015.2
49.8610,1019.9
49.8780,1051.1
49.8950,1068.6
49.9120,1062.4
49.9290,1069.2
49.9460,1072.1
49.9630,1073.6
49.9800,1068.8
49.9970,1083.0
50.0140,1101.5
50.0310,1143.4
50.0480,1184.2
50.0650,1243.1
50.0820,1364.8
50.0990,1496.1
50.1160,1612.8
50.1330,1680.0
50.1500,1779.8
50.1670,1843.6
50.1840,1886.5
50.2010,1898.4
50.2180,1959.4
50.2350,2103.6
50.2520,2573.2
50.2690,3349.9
50.2860,4581.7
50.3030,6879.6
50.3200,11109.2
50.3370,18385.8
50.3540,30217.3
50.3710,40972.8
50.3880,41897.8
50.4050,31782.9
50.4220,20805.1
50.4390,12822.5
50.4560,7800.5
50.4730,5038.4
50.4900,3429.1
50.5070,2912.6
50.5240,2791.9
50.5410,2456.9
50.5580,1960.6
50.5750,1712.4
50.5920,1681.9
50.6090,1601.3
50.6260,1594.9
50.6430,1402.2
50.6600,1144.2
50.6770,1054.8
50.6940,1104.6
50.7110,1184.2
50.7280,1028.4
50.7450,1035.4
50.7620,1044.3
50.7790,1086.6
50.7960,1177.8
50.8130,1184.8
50.8300,1100.3
50.8470,1088.0
50.8640,1071.3
50.8810,1059.9
50.8980,1060.3
50.9150,1079.4
50.9320,1054.8
50.9490,1068.7
50.9660,1078.5
50.9830,1053.8
51.0000,1049.5
51.0170,1024.6
51.0340,1004.1
51.0510,1023.3
51.0680,1044.2
51.0850,1047.4
51.1020,1035.0
51.1190,1004.6
51.1360,1030.6
51.1530,1039.8
51.1700,1021.4
51.1870,1042.4
51.2040,1015.1
51.2210,1002.1
51.2380,1018.2
51.2550,990.2
51.2720,994.4
51.2890,999.0
51.3060,969.0
51.3230,1000.5
51.3400,994.6
51.3570,1034.2
51.3740,991.4
51.3910,1030.2
51.4080,1033.6
51.4250,1024.3
51.4420,983.7
51.4590,1023.9
51.4760,975.7
51.4930,1005.6
51.5100,1044.4
51.5270,1000.2
51.5440,972.3
51.5610,977.7
51.5780,987.5
51.5950,963.2
51.6120,968.4
51.6290,989.5
51.6460,963.2
51.6630,934.9
51.6800,952.3
51.6970,990.5
51.7140,1014.3
51.7310,1017.4
51.7480,992.6
51.7650,1016.5
51.7820,992.9
51.7990,1005.3
51.8160,963.1
51.8330,980.4
51.8500,970.8
51.8670,967.3
51.8840,957.5
51.9010,984.3
51.9180,1020.5
51.9350,1011.5
51.9520,988.2
51.9690,991.3
51.9860,996.2
52.0030,999.7
52.0200,994.3
52.0370,983.5
52.0540,991.8
52.0710,1005.8
52.0880,1015.8
52.1050,979.7
52.1220,960.4
52.1390,983.5
52.1560,1007.4
52.1730,995.6
52.1900,973.0
52.2070,974.1
52.2240,993.0
52.2410,1009.2
52.2580,1011.7
52.2750,989.2
52.2920,960.0
52.3090,962.2
52.3260,996.0
52.3430,979.2
52.3600,964.9
52.3770,932.8
52.3940,948.9
52.4110,995.4
52.4280,985.1
52.4450,969.1
52.4620,957.2
52.4790,992.9
52.4960,990.1
52.5130,973.5
52.5300,935.6
52.5470,962.1
52.5640,964.2
52.5810,982.1
52.5980,968.4
52.6150,990.4
52.6320,993.0
52.6490,948.8
52.6660,1008.7
52.6830,1001.7
52.7000,966.2
52.7170,984.5
52.7340,979.1
52.7510,1012.1
52.7680,997.4
52.7850,987.3
52.8020,990.4
52.8190,966.3
52.8360,986.0
52.8530,968.2
52.8700,940.2
52.8870,960.2
52.9040,962.5
52.9210,955.4
52.9380,962.8
52.9550,974.8
52.9720,973.8
52.9890,1001.7
53.0060,994.9
53.0230,962.2
53.0400,965.5
53.0570,957.8
53.0740,971.2
53.0910,990.0
53.1080,972.5
53.1250,947.4
53.1420,922.9
53.1590,955.2
53.1760,972.1
53.1930,939.8
53.2100,906.5
53.2270,933.1
53.2440,965.6
53.2610,962.4
53.2780,1000.5
53.2950,989.9
53.3120,941.9
53.3290,957.8
53.3460,970.8
53.3630,978.5
53.3800,910.4
53.3970,964.8
53.4140,977.1
53.4310,976.8
53.4480,956.8
53.4650,955.2
53.4820,989.6
53.4990,983.0
53.5160,967.6
53.5330,975.5
53.5500,936.5
53.5670,961.5
53.5840,968.7
53.6010,946.8
53.6180,930.2
53.6350,966.1
53.6520,982.0
53.6690,952.2
53.6860,987.6
53.7030,996.3
53.7200,967.9
53.7370,952.0
53.7540,969.3
53.7710,989.9
53.7880,986.3
53.8050,958.3
53.8220,947.4
53.8390,953.6
53.8560,949.4
53.8730,989.6
53.8900,1012.6
53.9070,972.9
53.9240,955.8
53.9410,969.4
53.9580,989.1
53.9750,957.2
53.9920,947.5
54.0090,1003.0
54.0260,1002.2
54.0430,989.1
54.0600,974.4
54.0770,978.2
54.0940,950.4
54.1110,957.2
54.1280,976.1
54.1450,959.2
54.1620,931.8
54.1790,961.6
54.1960,972.0
54.2130,971.8
54.2300,970.9
54.2470,999.3
54.2640,958.8
54.2810,1001.5
54.2980,977.1
54.3150,962.2
54.3320,966.2
54.3490,983.9
54.3660,964.4
54.3830,940.8
54.4000,968.9
54.4170,965.4
54.4340,937.6
54.4510,901.2
54.4680,924.6
54.4850,983.2
54.5020,1000.0
54.5190,967.3
54.5360,953.4
54.5530,916.8
54.5700,991.2
54.5870,963.5
54.6040,972.8
54.6210,983.2
54.6380,939.3
54.6550,960.3
54.6720,967.7
54.6890,1009.2
54.7060,978.1
54.7230,948.1
54.7400,967.3
54.7570,988.0
54.7740,988.2
54.7910,992.6
54.8080,1002.3
54.8250,989.6
54.8420,966.6
54.8590,960.5
54.8760,953.8
54.8930,967.5
54.9100,975.6
54.9270,985.9
54.9440,984.1
54.9610,971.1
54.9780,986.9
54.9950,968.1
55.0120,955.2
55.0290,973.3
55.0460,963.7
55.0630,990.2
55.0800,975.7
55.0970,940.7
55.1140,968.5
55.1310,976.4
55.1480,979.4
55.1650,924.2
55.1820,959.6
55.1990,951.9
55.2160,937.8
55.2330,980.9
55.2500,964.8
55.2670,976.2
55.2840,965.2
55.3010,999.5
55.3180,989.6
55.3350,950.9
55.3520,949.6
55.3690,942.1
55.3860,926.5
55.4030,921.2
55.4200,971.1
55.4370,942.8
55.4540,986.8
55.4710,980.2
55.4880,937.6
55.5050,978.4
55.5220,952.9
55.5390,968.6
55.5560,977.0
55.5730,945.4
55.5900,951.5
55.6070,944.9
55.6240,976.4
55.6410,981.7
55.6580,962.4
55.6750,983.9
55.6920,966.4
55.7090,976.1
55.7260,1023.9
55.7430,988.8
55.7600,955.1
55.7770,973.6
55.7940,980.8
55.8110,944.6
55.8280,924.7
55.8450,967.9
55.8620,965.5
55.8790,941.7
55.8960,953.5
55.9130,961.9
55.9300,960.6
55.9470,954.1
55.9640,953.8
55.9810,935.9
55.9980,951.3
56.0150,955.9
56.0320,955.3
56.0490,977.8
56.0660,1005.1
56.0830,989.8
56.1000,971.0
56.1170,986.2
56.1340,973.1
56.1510,976.4
56.1680,1013.9
56.1850,993.6
56.2020,939.8
56.2190,937.6
56.2360,947.5
56.2530,954.7
56.2700,950.4
56.2870,958.5
56.3040,983.0
56.3210,995.2
56.3380,937.0
56.3550,983.2
56.3720,955.6
56.3890,983.0
56.4060,1014.8
56.4230,1006.9
56.4400,945.8
56.4570,1001.8
56.4740,922.3
56.4910,993.4
56.5080,1028.1
56.5250,966.2
56.5420,970.8
56.5590,981.4
56.5760,956.5
56.5930,965.2
56.6100,968.1
56.6270,956.5
56.6440,995.1
56.6610,963.8
56.6780,944.4
56.6950,934.3
56.7120,940.1
56.7290,958.1
56.7460,960.8
56.7630,974.0
56.7800,972.9
56.7970,955.6
56.8140,949.9
56.8310,949.4
56.8480,971.9
56.8650,985.2
56.8820,971.5
56.8990,947.4
56.9160,954.1
56.9330,958.0
56.9500,988.9
56.9670,970.5
56.9840,964.1
57.0010,996.4
57.0180,968.8
57.0350,949.6
57.0520,959.9
57.0690,973.6
57.0860,968.4
57.1030,974.8
57.1200,989.6
57.1370,1014.4
57.1540,988.5
57.1710,980.4
57.1880,969.5
57.2050,962.6
57.2220,985.1
57.2390,938.4
57.2560,929.2
57.2730,933.3
57.2900,951.4
57.3070,914.1
57.3240,977.9
57.3410,946.6
57.3580,970.4
57.3750,946.5
57.3920,971.0
57.4090,970.6
57.4260,964.9
57.4430,978.4
57.4600,951.4
57.4770,942.6
57.4940,969.1
57.5110,986.1
57.5280,972.5
57.5450,980.7
57.5620,988.5
57.5790,934.0
57.5960,949.4
57.6130,941.2
57.6300,960.9
57.6470,960.2
57.6640,980.5
57.6810,990.0
57.6980,1005.1
57.7150,986.8
57.7320,936.8
57.7490,949.0
57.7660,949.2
57.7830,953.2
57.8000,972.2
57.8170,974.0
57.8340,957.6
57.8510,953.0
57.8680,969.2
57.8850,971.2
57.9020,960.6
57.9190,1003.5
57.9360,1009.1
57.9530,978.9
57.9700,977.4
57.9870,968.6
58.0040,978.8
58.0210,989.8
58.0380,971.2
58.0550,989.3
58.0720,962.1
58.0890,963.8
58.1060,976.9
58.1230,990.9
58.1400,987.1
58.1570,942.1
58.1740,960.4
58.1910,968.4
58.2080,1004.4
58.2250,979.9
58.2420,991.9
58.2590,957.6
58.2760,952.9
58.2930,983.7
58.3100,991.7
58.3270,940.2
58.3440,958.9
58.3610,942.7
58.3780,955.7
58.3950,980.3
58.4120,940.5
58.4290,995.1
58.4460,963.9
58.4630,948.6
58.4800,974.9
58.4970,991.2
58.5140,1009.4
58.5310,997.4
58.5480,969.8
58.5650,951.9
58.5820,966.0
58.5990,966.9
58.6160,978.6
58.6330,942.2
58.6500,960.8
58.6670,956.8
58.6840,956.8
58.7010,999.0
58.7180,966.1
58.7350,952.5
58.7520,974.5
58.7690,934.7
58.7860,945.9
58.8030,946.6
58.8200,972.9
58.8370,985.5
58.8540,963.2
58.8710,981.7
58.8880,975.6
58.9050,952.9
58.9220,952.9
58.9390,984.2
58.9560,987.4
58.9730,976.4
58.9900,951.5
59.0070,962.0
59.0240,993.6
59.0410,986.1
59.0580,954.6
59.0750,946.6
59.0920,926.5
59.1090,951.4
59.1260,977.9
59.1430,1041.9
59.1600,1063.4
59.1770,926.1
59.1940,943.9
59.2110,942.6
59.2280,936.9
59.2450,952.6
59.2620,964.5
59.2790,1000.2
59.2960,940.1
59.3130,954.9
59.3300,922.6
59.3470,955.6
59.3640,1055.5
59.3810,955.1
59.3980,1002.5
59.4150,960.3
59.4320,934.1
59.4490,953.4
59.4660,975.7
59.4830,986.1
59.5000,973.8
59.5170,1000.5
59.5340,960.8
59.5510,975.2
59.5680,991.4
59.5850,950.2
59.6020,953.1
59.6190,953.6
59.6360,932.2
59.6530,953.8
59.6700,981.1
59.6870,951.6
59.7040,962.0
59.7210,962.3
59.7380,965.4
59.7550,941.1
59.7720,959.4
59.7890,982.4
59.8060,989.1
59.8230,1007.3
59.8400,1010.2
59.8570,979.9
59.8740,962.5
59.8910,971.8
59.9080,984.7
59.9250,979.5
59.9420,970.5
59.9590,963.7
59.9760,990.1
59.9930,975.8
60.0100,972.9
60.0270,985.9
60.0440,966.4
60.0610,938.8
60.0780,921.4
60.0950,960.2
60.1120,979.8
60.1290,975.2
60.1460,948.1
60.1630,978.6
60.1800,925.7
60.1970,953.6
60.2140,961.5
60.2310,940.4
60.2480,977.5
60.2650,953.2
60.2820,958.0
60.2990,977.4
60.3160,1025.8
60.3330,944.0
60.3500,977.4
60.3670,995.1
60.3840,937.2
60.4010,1001.8
60.4180,950.5
60.4350,960.8
60.4520,1000.6
60.4690,933.5
60.4860,974.0
60.5030,972.2
60.5200,943.8
60.5370,955.0
60.5540,941.0
60.5710,971.8
60.5880,953.1
60.6050,968.1
60.6220,936.5
60.6390,931.2
60.6560,966.6
60.6730,974.8
60.6900,957.8
60.7070,987.6
60.7240,994.5
60.7410,955.6
60.7580,965.9
60.7750,979.5
60.7920,957.8
60.8090,986.9
60.8260,999.9
60.8430,982.2
60.8600,987.5
60.8770,1010.5
60.8940,986.2
60.9110,974.1
60.9280,991.4
60.9450,995.8
60.9620,962.6
60.9790,989.4
60.9960,992.1
61.0130,944.4
61.0300,921.1
61.0470,958.4
61.0640,1025.8
61.0810,974.5
61.0980,966.1
61.1150,967.2
61.1320,968.8
61.1490,953.7
61.1660,1010.6
61.1830,973.1
61.2000,976.1
61.2170,1006.4
61.2340,965.8
61.2510,978.4
61.2680,984.6
61.2850,977.7
61.3020,973.8
61.3190,986.6
61.3360,981.5
61.3530,988.5
61.3700,979.9
61.3870,960.5
61.4040,923.1
61.4210,958.3
61.4380,978.5
61.4550,972.9
61.4720,1001.2
61.4890,973.0
61.5060,974.5
61.5230,997.0
61.5400,981.2
61.5570,985.2
61.5740,985.8
61.5910,951.9
61.6080,980.5
61.6250,956.6
61.6420,966.5
61.6590,958.4
61.6760,950.9
61.6930,980.5
61.7100,970.0
61.7270,939.4
61.7440,962.0
61.7610,979.3
61.7780,1001.8
61.7950,1028.3
61.8120,1000.1
61.8290,982.9
61.8460,949.7
61.8630,945.5
61.8800,954.1
61.8970,956.1
61.9140,957.6
61.9310,965.6
61.9480,943.8
61.9650,957.4
61.9820,962.9
61.9990,947.2
62.0160,981.5
62.0330,975.1
62.0500,1007.6
62.0670,985.2
62.0840,974.4
62.1010,993.6
62.1180,957.6
62.1350,997.6
62.1520,963.1
62.1690,1007.4
62.1860,920.1
62.2030,954.8
62.2200,967.6
62.2370,976.8
62.2540,958.9
62.2710,974.4
62.2880,980.7
62.3050,975.4
62.3220,964.1
62.3390,935.2
62.3560,973.5
62.3730,1009.2
62.3900,948.0
62.4070,947.4
62.4240,941.3
62.4410,991.4
62.4580,951.9
62.4750,981.1
62.4920,951.1
62.5090,953.9
62.5260,967.8
62.5430,963.4
62.5600,952.6
62.5770,948.8
62.5940,990.6
62.6110,952.5
62.6280,959.6
62.6450,957.9
62.6620,1019.5
62.6790,1012.4
62.6960,1019.5
62.7130,1025.7
62.7300,1004.6
62.7470,997.9
62.7640,978.5
62.7810,954.8
62.7980,966.8
62.8150,947.5
62.8320,955.1
62.8490,956.4
62.8660,962.6
62.8830,971.8
62.9000,970.6
62.9170,996.4
62.9340,1002.9
62.9510,1002.2
62.9680,1003.5
62.9850,979.9
63.0020,993.7
63.0190,989.8
63.0360,999.9
63.0530,965.1
63.0700,935.9
63.0870,965.6
63.1040,956.6
63.1210,905.4
63.1380,943.5
63.1550,951.6
63.1720,945.1
63.1890,932.6
63.2060,975.4
63.2230,997.9
63.2400,998.2
63.2570,1016.8
63.2740,994.8
63.2910,960.1
63.3080,961.4
63.3250,967.4
63.3420,974.2
63.3590,993.2
63.3760,982.8
63.3930,1008.9
63.4100,961.4
63.4270,1001.4
63.4440,1019.9
63.4610,972.4
63.4780,993.1
63.4950,976.6
63.5120,954.1
63.5290,957.8
63.5460,1003.5
63.5630,1008.2
63.5800,963.8
63.5970,962.6
63.6140,989.3
63.6310,992.4
63.6480,966.8
63.6650,964.8
63.6820,994.7
63.6990,1003.7
63.7160,967.8
63.7330,982.1
63.7500,999.8
63.7670,996.2
63.7840,1000.2
63.8010,1003.7
63.8180,998.8
63.8350,994.4
63.8520,984.8
63.8690,999.2
63.8860,1017.9
63.9030,1000.6
63.9200,994.5
63.9370,1001.3
63.9540,989.8
63.9710,984.6
63.9880,960.6
64.0050,939.2
64.0220,959.1
64.0390,959.3
64.0560,949.1
64.0730,967.6
64.0900,992.7
64.1070,986.5
64.1240,961.7
64.1410,958.9
64.1580,989.1
64.1750,972.6
64.1920,938.8
64.2090,998.8
64.2260,981.3
64.2430,998.7
64.2600,949.9
64.2770,1011.1
64.2940,980.4
64.3110,988.5
64.3280,1010.2
64.3450,982.8
64.3620,996.9
64.3790,1010.0
64.3960,978.8
64.4130,990.6
64.4300,971.3
64.4470,1005.9
64.4640,971.6
64.4810,950.8
64.4980,976.9
64.5150,930.1
64.5320,964.3
64.5490,969.0
64.5660,968.1
64.5830,954.0
64.6000,955.5
64.6170,980.0
64.6340,981.4
64.6510,1001.7
64.6680,981.5
64.6850,990.2
64.7020,1008.1
64.7190,992.9
64.7360,989.4
64.7530,963.8
64.7700,962.1
64.7870,980.1
64.8040,981.6
64.8210,976.4
64.8380,997.9
64.8550,994.6
64.8720,971.8
64.8890,967.2
64.9060,955.3
64.9230,963.0
64.9400,1009.1
64.9570,979.4
64.9740,984.6
64.9910,980.6
65.0080,1020.6
65.0250,995.7
65.0420,959.6
65.0590,969.9
65.0760,968.7
65.0930,980.9
65.1100,995.4
65.1270,984.3
65.1440,973.2
65.1610,975.8
65.1780,956.7
65.1950,968.4
65.2120,974.3
65.2290,977.5
65.2460,956.2
65.2630,994.9
65.2800,1038.1
65.2970,989.1
65.3140,957.6
65.3310,954.2
65.3480,989.9
65.3650,988.4
65.3820,995.3
65.3990,999.9
65.4160,995.2
65.4330,951.8
65.4500,965.4
65.4670,971.6
65.4840,980.6
65.5010,975.6
65.5180,999.8
65.5350,982.1
65.5520,1013.4
65.5690,986.8
65.5860,986.5
65.6030,1025.5
65.6200,1015.3
65.6370,988.8
65.6540,999.5
65.6710,974.3
65.6880,963.1
65.7050,966.5
65.7220,990.2
65.7390,991.3
65.7560,963.9
65.7730,963.9
65.7900,996.6
65.8070,1020.8
65.8240,1001.2
65.8410,988.6
65.8580,998.3
65.8750,986.9
65.8920,986.1
65.9090,988.9
65.9260,1019.0
65.9430,1002.6
65.9600,996.6
65.9770,991.1
65.9940,991.5
66.0110,969.8
66.0280,1000.4
66.0450,1021.5
66.0620,1011.8
66.0790,993.7
66.0960,1005.7
66.1130,1015.1
66.1300,984.5
66.1470,992.3
66.1640,997.6
66.1810,1007.2
66.1980,1007.5
66.2150,951.2
66.2320,939.5
66.2490,950.4
66.2660,988.4
66.2830,977.7
66.3000,958.6
66.3170,986.0
66.3340,1016.4
66.3510,991.6
66.3680,1000.8
66.3850,980.9
66.4020,976.5
66.4190,938.5
66.4360,964.0
66.4530,994.2
66.4700,967.9
66.4870,997.5
66.5040,975.7
66.5210,1001.5
66.5380,979.4
66.5550,1000.5
66.5720,991.1
66.5890,977.3
66.6060,999.3
66.6230,1020.8
66.6400,1030.7
66.6570,992.7
66.6740,973.7
66.6910,1000.2
66.7080,986.0
66.7250,969.1
66.7420,954.0
66.7590,955.2
66.7760,974.3
66.7930,979.1
66.8100,980.2
66.8270,967.8
66.8440,981.4
66.8610,988.4
66.8780,996.1
66.8950,1015.9
66.9120,1045.4
66.9290,1019.8
66.9460,1015.4
66.9630,1007.7
66.9800,1033.8
66.9970,1012.1
67.0140,981.5
67.0310,972.6
67.0480,968.4
67.0650,990.0
67.0820,990.4
67.0990,995.9
67.1160,983.1
67.1330,1046.0
67.1500,998.7
67.1670,1009.9
67.1840,1009.2
67.2010,1010.6
67.2180,975.6
67.2350,1014.9
67.2520,967.5
67.2690,991.8
67.2860,1003.8
67.3030,981.7
67.3200,947.7
67.3370,990.5
67.3540,980.5
67.3710,957.8
67.3880,971.1
67.4050,974.1
67.4220,993.9
67.4390,1021.1
67.4560,976.6
67.4730,1003.3
67.4900,1021.3
67.5070,977.4
67.5240,971.5
67.5410,1026.2
67.5580,996.7
67.5750,993.2
67.5920,1013.8
67.6090,1041.6
67.6260,1017.3
67.6430,990.3
67.6600,995.2
67.6770,998.4
67.6940,1005.5
67.7110,1012.2
67.7280,998.6
67.7450,993.6
67.7620,1002.7
67.7790,981.4
67.7960,972.8
67.8130,999.2
67.8300,971.4
67.8470,978.8
67.8640,991.4
67.8810,998.6
67.8980,1008.4
67.9150,1013.8
67.9320,1011.5
67.9490,1017.5
67.9660,978.4
67.9830,984.5
68.0000,974.2
68.0170,930.4
68.0340,954.5
68.0510,981.2
68.0680,1015.5
68.0850,992.9
68.1020,1006.6
68.1190,997.7
68.1360,964.1
68.1530,1013.1
68.1700,1021.3
68.1870,1115.3
68.2040,1008.2
68.2210,1010.6
68.2380,1007.2
68.2550,1038.9
68.2720,990.2
68.2890,1009.1
68.3060,1010.5
68.3230,1018.4
68.3400,1007.4
68.3570,997.3
68.3740,986.4
68.3910,993.4
68.4080,1014.9
68.4250,1014.5
68.4420,1022.6
68.4590,1014.9
68.4760,1000.6
68.4930,1039.6
68.5100,984.6
68.5270,980.8
68.5440,1009.6
68.5610,1017.8
68.5780,997.6
68.5950,989.1
68.6120,958.6
68.6290,970.2
68.6460,1005.4
68.6630,994.8
68.6800,992.0
68.6970,991.5
68.7140,983.5
68.7310,976.4
68.7480,984.0
68.7650,999.8
68.7820,996.6
68.7990,992.8
68.8160,1020.6
68.8330,1013.4
68.8500,987.8
68.8670,999.2
68.8840,985.1
68.9010,973.8
68.9180,1014.9
68.9350,964.7
68.9520,960.5
68.9690,970.5
68.9860,993.3
69.0030,982.6
69.0200,990.6
69.0370,969.9
69.0540,984.5
69.0710,978.0
69.0880,1008.7
69.1050,988.9
69.1220,1003.5
69.1390,994.0
69.1560,962.7
69.1730,976.4
69.1900,1016.8
69.2070,1042.8
69.2240,1008.4
69.2410,1013.3
69.2580,1001.9
69.2750,1002.7
69.2920,1042.8
69.3090,990.1
69.3260,962.5
69.3430,1003.5
69.3600,1026.1
69.3770,1012.3
69.3940,1015.3
69.4110,988.8
69.4280,1001.2
69.4450,988.7
69.4620,1000.1
69.4790,1003.5
69.4960,1025.7
69.5130,1004.6
69.5300,998.5
69.5470,990.9
69.5640,1005.8
69.5810,1001.5
69.5980,993.7
69.6150,1005.1
69.6320,1007.5
69.6490,1016.4
69.6660,1023.2
69.6830,1025.7
69.7000,1003.9
69.7170,985.2
69.7340,973.4
69.7510,995.1
69.7680,996.8
69.7850,1010.3
69.8020,1015.9
69.8190,1029.6
69.8360,1024.6
69.8530,1031.4
69.8700,990.4
69.8870,1014.4
69.9040,1036.1
69.9210,1020.6
69.9380,1013.6
69.9550,992.7
69.9720,1003.6
69.9890,998.8
70.0060,1028.5
70.0230,1034.4
70.0400,995.2
70.0570,1026.3
70.0740,969.1
70.0910,1004.9
70.1080,1035.9
70.1250,1048.6
70.1420,1027.6
70.1590,1037.2
70.1760,1022.6
70.1930,999.8
70.2100,984.9
70.2270,1062.4
70.2440,1033.5
70.2610,981.7
70.2780,1054.5
70.2950,1013.4
70.3120,1005.1
70.3290,1020.5
70.3460,981.8
70.3630,1010.2
70.3800,1000.5
70.3970,1038.2
70.4140,1006.6
70.4310,971.2
70.4480,1022.2
70.4650,1009.5
70.4820,1018.9
70.4990,1031.1
70.5160,1000.9
70.5330,1016.5
70.5500,1039.4
70.5670,1027.9
70.5840,1009.4
70.6010,1001.2
70.6180,1019.4
70.6350,1009.1
70.6520,1010.2
70.6690,1012.6
70.6860,991.9
70.7030,1005.4
70.7200,994.9
70.7370,980.0
70.7540,1012.6
70.7710,1022.3
70.7880,1010.5
70.8050,1001.5
70.8220,994.9
70.8390,1025.4
70.8560,1015.1
70.8730,1017.2
70.8900,1019.5
70.9070,1011.1
70.9240,1011.1
70.9410,997.8
70.9580,1024.7
70.9750,1003.5
70.9920,995.2
71.0090,999.9
71.0260,1030.1
71.0430,1030.5
71.0600,1008.6
71.0770,1032.8
71.0940,1012.4
71.1110,1004.1
71.1280,1037.9
71.1450,1034.1
71.1620,989.7
71.1790,1033.6
71.1960,1043.2
71.2130,1031.5
71.2300,1052.8
71.2470,1016.8
71.2640,1014.2
71.2810,1019.3
71.2980,1054.1
71.3150,1023.2
71.3320,1010.4
71.3490,1015.1
71.3660,1001.0
71.3830,1016.7
71.4000,1011.6
71.4170,1006.3
71.4340,1009.2
71.4510,981.1
71.4680,999.8
71.4850,1030.2
71.5020,1048.2
71.5190,1020.4
71.5360,1042.5
71.5530,1035.1
71.5700,1038.1
71.5870,1055.2
71.6040,1057.8
71.6210,1053.6
71.6380,1046.6
71.6550,1023.9
71.6720,1009.0
71.6890,1041.0
71.7060,1040.1
71.7230,1025.5
71.7400,1018.2
71.7570,1022.2
71.7740,1043.2
71.7910,1060.2
71.8080,1032.4
71.8250,1036.0
71.8420,1003.6
71.8590,999.5
71.8760,1040.4
71.8930,1063.3
71.9100,1082.8
71.9270,1060.8
71.9440,1011.3
71.9610,1048.4
71.9780,1052.3
71.9950,1026.1
72.0120,1043.1
72.0290,1025.0
72.0460,978.1
72.0630,998.5
72.0800,1052.7
72.0970,1031.2
72.1140,1019.2
72.1310,1021.7
72.1480,1004.8
72.1650,1062.6
72.1820,1027.5
72.1990,1066.6
72.2160,1043.7
72.2330,1024.7
72.2500,1049.8
72.2670,1017.9
72.2840,1064.3
72.3010,1067.4
72.3180,1042.2
72.3350,1042.9
72.3520,1013.1
72.3690,1060.6
72.3860,1040.0
72.4030,1055.4
72.4200,1046.1
72.4370,1062.6
72.4540,1055.1
72.4710,1040.9
72.4880,1039.3
72.5050,1027.4
72.5220,1018.6
72.5390,1043.8
72.5560,1040.1
72.5730,1043.1
72.5900,1059.4
72.6070,1050.1
72.6240,1066.9
72.6410,1063.1
72.6580,1032.8
72.6750,1045.7
72.6920,1040.9
72.7090,1038.9
72.7260,1022.5
72.7430,1047.6
72.7600,1056.5
72.7770,1032.0
72.7940,1034.4
72.8110,1071.7
72.8280,1065.1
72.8450,1033.2
72.8620,1023.5
72.8790,1062.8
72.8960,1059.4
72.9130,1049.4
72.9300,1039.5
72.9470,1032.1
72.9640,1047.5
72.9810,1008.4
72.9980,1015.8
73.0150,1030.8
73.0320,1072.4
73.0490,1028.6
73.0660,993.1
73.0830,1044.8
73.1000,1069.4
73.1170,1014.1
73.1340,1061.9
73.1510,1029.5
73.1680,1050.7
73.1850,1019.6
73.2020,1109.1
73.2190,1093.4
73.2360,1081.2
73.2530,1039.2
73.2700,1087.9
73.2870,1054.1
73.3040,1039.7
73.3210,1050.8
73.3380,1048.8
73.3550,1076.4
73.3720,1065.0
73.3890,1051.5
73.4060,1091.6
73.4230,1081.8
73.4400,1031.4
73.4570,1040.2
73.4740,1075.8
73.4910,1089.2
73.5080,1093.0
73.5250,1092.9
73.5420,1091.2
73.5590,1078.5
73.5760,1090.2
73.5930,1162.5
73.6100,1235.6
73.6270,1244.3
73.6440,1235.1
73.6610,1271.6
73.6780,1328.6
73.6950,1302.5
73.7120,1230.2
73.7290,1234.4
73.7460,1255.3
73.7630,1232.0
73.7800,1297.6
73.7970,1321.8
73.8140,1304.7
73.8310,1353.1
73.8480,1436.5
73.8650,1466.8
73.8820,1585.2
73.8990,1749.7
73.9160,2062.8
73.9330,2590.2
73.9500,3493.5
73.9670,5273.1
73.9840,8567.0
74.0010,13659.1
74.0180,18380.9
74.0350,18920.8
74.0520,15009.2
74.0690,10373.6
74.0860,6919.5
74.1030,4653.5
74.1200,3285.6
74.1370,2499.2
74.1540,2019.0
74.1710,1702.5
74.1880,1499.0
74.2050,1446.8
74.2220,1369.8
74.2390,1211.1
74.2560,1061.4
74.2730,1460.1
74.2900,1329.6
74.3070,1275.3
74.3240,1273.3
74.3410,1164.1
74.3580,1140.9
74.3750,1248.7
74.3920,1199.5
74.4090,1250.1
74.4260,1171.1
74.4430,1162.1
74.4600,1240.6
74.4770,1194.4
74.4940,1074.2
74.5110,1095.1
74.5280,1129.2
74.5450,1131.5
74.5620,1122.9
74.5790,1121.3
74.5960,1110.4
74.6130,1115.8
74.6300,1110.3
74.6470,1082.8
74.6640,1081.4
74.6810,1104.3
74.6980,1122.4
74.7150,1079.3
74.7320,1070.1
74.7490,1103.8
74.7660,1098.5
74.7830,1074.2
74.8000,1062.2
74.8170,1084.4
74.8340,1119.6
74.8510,1082.0
74.8680,1081.4
74.8850,1070.5
74.9020,1047.2
74.9190,1064.5
74.9360,1045.2
74.9530,1108.6
74.9700,1054.7
74.9870,1049.5
75.0040,1040.6
75.0210,1036.0
75.0380,1069.0
75.0550,1084.6
75.0720,1076.8
75.0890,1057.1
75.1060,1044.1
75.1230,1062.4
75.1400,1071.1
75.1570,1101.5
75.1740,1046.4
75.1910,1067.2
75.2080,1040.8
75.2250,1068.8
75.2420,1067.5
75.2590,1091.1
75.2760,1074.8
75.2930,1054.7
75.3100,1051.2
75.3270,1071.1
75.3440,1069.1
75.3610,1022.8
75.3780,1035.4
75.3950,1040.9
75.4120,1039.3
75.4290,1046.6
75.4460,1087.8
75.4630,1067.6
75.4800,1061.9
75.4970,1074.3
75.5140,1047.3
75.5310,1052.1
75.5480,1053.3
75.5650,1058.8
75.5820,1072.1
75.5990,1072.6
75.6160,1050.2
75.6330,1055.1
75.6500,1070.6
75.6670,1049.2
75.6840,1052.9
75.7010,1067.5
75.7180,1074.7
75.7350,1067.5
75.7520,1025.9
75.7690,1011.7
75.7860,1055.2
75.8030,1057.7
75.8200,1052.1
75.8370,1040.5
75.8540,1095.5
75.8710,1086.7
75.8880,1080.1
75.9050,1049.6
75.9220,1057.7
75.9390,1036.2
75.9560,1025.8
75.9730,1054.4
75.9900,1058.6
76.0070,1037.6
76.0240,1062.9
76.0410,1060.8
76.0580,1042.1
76.0750,1057.4
76.0920,1015.8
76.1090,1028.2
76.1260,1021.4
76.1430,1105.6
76.1600,1084.5
76.1770,1089.8
76.1940,1054.9
76.2110,1068.7
76.2280,1049.2
76.2450,1067.5
76.2620,1061.7
76.2790,1103.1
76.2960,1071.3
76.3130,1060.8
76.3300,1072.9
76.3470,1069.9
76.3640,1051.8
76.3810,1049.6
76.3980,1074.1
76.4150,1059.4
76.4320,1064.4
76.4490,1053.7
76.4660,1033.9
76.4830,1048.1
76.5000,1050.4
76.5170,1056.8
76.5340,1054.0
76.5510,1053.1
76.5680,1039.9
76.5850,1072.3
76.6020,1108.5
76.6190,1096.8
76.6360,1045.1
76.6530,1048.3
76.6700,1081.9
76.6870,1032.6
76.7040,1044.0
76.7210,1059.5
76.7380,1049.9
76.7550,1019.4
76.7720,1056.5
76.7890,1045.8
76.8060,1010.8
76.8230,1026.1
76.8400,1060.3
76.8570,1066.4
76.8740,1085.6
76.8910,1048.6
76.9080,1073.5
76.9250,1051.6
76.9420,1092.7
76.9590,1069.5
76.9760,1027.4
76.9930,1005.8
77.0100,1082.4
77.0270,1071.6
77.0440,1063.7
77.0610,1029.9
77.0780,1077.1
77.0950,1089.9
77.1120,1026.9
77.1290,1059.8
77.1460,1088.8
77.1630,1082.2
77.1800,1021.6
77.1970,1032.3
77.2140,1053.8
77.2310,1064.4
77.2480,1025.8
77.2650,1067.2
77.2820,1023.6
77.2990,1050.5
77.3160,1058.4
77.3330,1063.9
77.3500,1047.1
77.3670,1064.4
77.3840,1068.1
77.4010,1037.5
77.4180,1030.1
77.4350,1032.9
77.4520,1062.2
77.4690,1048.2
77.4860,1034.5
77.5030,1011.2
77.5200,1031.6
77.5370,1055.8
77.5540,1036.2
77.5710,1039.8
77.5880,1050.5
77.6050,1028.0
77.6220,1061.4
77.6390,1081.6
77.6560,1043.8
77.6730,1041.7
77.6900,1052.7
77.7070,1047.9
77.7240,1047.7
77.7410,1059.3
77.7580,1063.3
77.7750,1050.4
77.7920,1025.7
77.8090,1053.3
77.8260,1057.1
77.8430,1043.7
77.8600,1069.5
77.8770,1047.7
77.8940,1072.9
77.9110,1039.6
77.9280,1034.1
77.9450,1050.1
77.9620,1021.4
77.9790,1043.8
77.9960,1056.5
78.0130,1065.2
78.0300,1084.4
78.0470,1075.1
78.0640,1070.6
78.0810,989.4
78.0980,1058.3
78.1150,1031.8
78.1320,1046.1
78.1490,1064.2
78.1660,1084.1
78.1830,1084.1
78.2000,1069.2
78.2170,1056.6
78.2340,1048.8
78.2510,1030.9
78.2680,1059.5
78.2850,1037.4
78.3020,1059.2
78.3190,1044.7
78.3360,1025.8
78.3530,1056.5
78.3700,1079.6
78.3870,1057.3
78.4040,1044.9
78.4210,1028.2
78.4380,1047.8
78.4550,1061.4
78.4720,1068.4
78.4890,1073.3
78.5060,1045.1
78.5230,1031.4
78.5400,1036.2
78.5570,1023.9
78.5740,1023.1
78.5910,1042.9
78.6080,1074.9
78.6250,1088.3
78.6420,1075.8
78.6590,1056.7
78.6760,1050.9
78.6930,1034.0
78.7100,1035.4
78.7270,1060.1
78.7440,1093.8
78.7610,1086.8
78.7780,1034.7
78.7950,1031.4
78.8120,1055.2
78.8290,1071.8
78.8460,1036.1
78.8630,1038.5
78.8800,1060.1
78.8970,1030.6
78.9140,1040.5
78.9310,1050.1
78.9480,1083.2
78.9650,1073.2
78.9820,1121.1
78.9990,1058.1
79.0160,1044.7
79.0330,1068.6
79.0500,1016.5
79.0670,1040.5
79.0840,1050.7
79.1010,1075.8
79.1180,1042.4
79.1350,1064.0
79.1520,1048.6
79.1690,1059.2
79.1860,1062.5
79.2030,1054.4
79.2200,1059.6
79.2370,1055.2
79.2540,1089.8
79.2710,1070.3
79.2880,1058.9
79.3050,1057.9
79.3220,1055.1
79.3390,1040.8
79.3560,1053.9
79.3730,1069.5
79.3900,1075.3
79.4070,1048.8
79.4240,1060.6
79.4410,1054.5
79.4580,1047.5
79.4750,1072.4
79.4920,1077.1
79.5090,1060.2
79.5260,1033.3
79.5430,1054.5
79.5600,1062.3
79.5770,1050.6
79.5940,1044.9
79.6110,1058.2
79.6280,1044.5
79.6450,1021.2
79.6620,1039.9
79.6790,1039.1
79.6960,1058.5
79.7130,1079.4
79.7300,1039.7
79.7470,1066.8
79.7640,1063.4
79.7810,1052.2
79.7980,1040.8
79.8150,1069.3
79.8320,1057.4
79.8490,1047.5
79.8660,1040.9
79.8830,1056.1
79.9000,1058.2
79.9170,1060.8
79.9340,1058.8
79.9510,1070.5
79.9680,1062.7
